# DMC at SINQ, PSI: Sample name = Unknown, wavelength = 2.450 AA, T = 0.0 K
# Filelist='dmc:2021:565,575,578,579,585-587'
#   0.000   0.125 132.000     980., sample="Unknown"
0.000000000000000000e+00  1.729000000000000000e+05  3.478936619140969924e+03
1.250000000000000000e-01  1.765400000000000000e+05  2.485739326639058618e+03
2.500000000000000000e-01  1.689100000000000000e+05  1.537771114307977768e+03
3.750000000000000000e-01  1.685180000000000000e+05  1.535985677016553382e+03
5.000000000000000000e-01  1.634500000000000000e+05  1.127509546645959972e+03
6.250000000000000000e-01  1.690500000000000000e+05  1.146661821695190611e+03
7.500000000000000000e-01  1.660292307692307804e+05  9.455176097227687251e+02
8.750000000000000000e-01  1.656250000000000000e+05  9.100137361600648092e+02
1.000000000000000000e+00  1.653250000000000000e+05  9.091891992319310702e+02
1.125000000000000000e+00  1.633135000000000000e+05  7.560405081739999105e+02
1.250000000000000000e+00  1.647916666666666570e+05  8.005351219537351426e+02
1.375000000000000000e+00  1.644329166666666861e+05  6.925287047801300560e+02
1.500000000000000000e+00  1.654766666666666570e+05  7.426903048302763182e+02
1.625000000000000000e+00  1.613214814814814890e+05  6.467154535921898741e+02
1.750000000000000000e+00  1.657075000000000000e+05  6.952075529413260710e+02
1.875000000000000000e+00  1.602051612903225760e+05  6.014595497707272216e+02
2.000000000000000000e+00  1.651275000000000000e+05  6.425097275528207774e+02
2.125000000000000000e+00  1.592500000000000000e+05  5.643580423808984960e+02
2.250000000000000000e+00  1.614060000000000000e+05  5.681654688556847077e+02
2.375000000000000000e+00  1.623072972972972784e+05  5.541370405880151111e+02
2.500000000000000000e+00  1.612975000000000000e+05  5.312914689697172435e+02
2.625000000000000000e+00  1.602207894736842136e+05  5.432711657697163901e+02
2.750000000000000000e+00  1.587981818181818235e+05  5.026265721928956509e+02
2.875000000000000000e+00  1.605916666666666570e+05  5.173516964094907280e+02
3.000000000000000000e+00  1.582744680851063749e+05  4.855182089176305453e+02
3.125000000000000000e+00  1.588912500000000000e+05  4.813693033939742918e+02
3.250000000000000000e+00  1.576341666666666861e+05  4.794613224465788335e+02
3.375000000000000000e+00  1.591275000000000000e+05  4.628283657619163023e+02
3.500000000000000000e+00  1.581912500000000000e+05  4.446786058492133407e+02
3.625000000000000000e+00  1.586592982456140162e+05  4.414122248323621989e+02
3.750000000000000000e+00  1.576436842105263204e+05  4.399971669513427059e+02
3.875000000000000000e+00  1.572257377049180504e+05  4.247622602046563998e+02
4.000000000000000000e+00  1.583551666666666570e+05  4.298228640317362874e+02
4.125000000000000000e+00  1.564510937500000000e+05  4.136645788426445165e+02
4.250000000000000000e+00  1.569345312500000000e+05  4.143032024431955733e+02
4.375000000000000000e+00  1.557133846153845952e+05  4.095013275657436793e+02
4.500000000000000000e+00  1.570187500000000000e+05  3.907136010629212137e+02
4.625000000000000000e+00  1.564438235294117767e+05  4.013042641895889346e+02
4.750000000000000000e+00  1.554727272727272939e+05  3.759505858157513671e+02
4.875000000000000000e+00  1.549454929577464645e+05  3.908492830632002892e+02
5.000000000000000000e+00  1.550246987951807387e+05  3.615850133446540440e+02
5.125000000000000000e+00  1.554036842105262913e+05  3.783318282925307585e+02
5.250000000000000000e+00  1.540418292682926985e+05  3.626280774376185718e+02
5.375000000000000000e+00  1.545546153846153757e+05  3.724283286225046368e+02
5.500000000000000000e+00  1.543195294117646990e+05  3.564921756227993228e+02
5.625000000000000000e+00  1.554754444444444380e+05  3.477432180201540177e+02
5.750000000000000000e+00  1.528865116279069625e+05  3.527640988884433568e+02
5.875000000000000000e+00  1.540993548387096671e+05  3.405712285360518194e+02
6.000000000000000000e+00  1.536677011494252947e+05  3.516257656738829951e+02
6.125000000000000000e+00  1.536680412371133862e+05  3.330082022239577668e+02
6.250000000000000000e+00  1.528189361702127499e+05  3.373445352246025664e+02
6.375000000000000000e+00  1.539563366336633626e+05  3.266533507072620637e+02
6.500000000000000000e+00  1.530292857142857101e+05  3.306155360128456095e+02
6.625000000000000000e+00  1.533580000000000000e+05  3.197478172977365034e+02
6.750000000000000000e+00  1.539492156862745178e+05  3.250406475039641236e+02
6.875000000000000000e+00  1.547931192660550587e+05  3.152910167079497228e+02
7.000000000000000000e+00  1.519475471698113251e+05  3.167691901513161383e+02
7.125000000000000000e+00  1.542106422018348530e+05  3.146972471715079109e+02
7.250000000000000000e+00  1.550007920792078949e+05  3.277595025930523889e+02
7.375000000000000000e+00  1.557281250000000000e+05  3.369744171483941955e+02
7.500000000000000000e+00  1.607040217391304323e+05  3.496781365046124961e+02
7.625000000000000000e+00  1.608803225806451810e+05  3.479837868650143378e+02
7.750000000000000000e+00  1.643552272727272648e+05  3.615758739231723098e+02
7.875000000000000000e+00  1.655048888888889051e+05  3.587840920266086755e+02
8.000000000000000000e+00  1.691729069767441833e+05  3.710779941895888214e+02
8.125000000000000000e+00  1.700324137931034493e+05  3.698752347195185166e+02
8.250000000000000000e+00  1.726610344827586086e+05  3.727233175197242758e+02
8.375000000000000000e+00  1.766931250000000000e+05  3.932003107514031512e+02
8.500000000000000000e+00  1.776155294117646990e+05  3.824547194855194903e+02
8.625000000000000000e+00  1.812037500000000000e+05  3.981874950949615481e+02
8.750000000000000000e+00  1.788980722891566402e+05  3.884300352599677808e+02
8.875000000000000000e+00  1.885263636363636469e+05  4.139898589407536633e+02
9.000000000000000000e+00  1.873370731707317173e+05  3.999023527451576001e+02
9.125000000000000000e+00  1.963768604651162750e+05  3.998019892536068483e+02
9.250000000000000000e+00  1.981313157894737087e+05  4.271877453837998360e+02
9.375000000000000000e+00  2.022782758620689565e+05  4.034261218006215586e+02
9.500000000000000000e+00  2.102247887323943723e+05  4.552624256569354770e+02
9.625000000000000000e+00  2.076575000000000000e+05  4.159902843416738278e+02
9.750000000000000000e+00  2.143106756756756513e+05  4.502513907011747278e+02
9.875000000000000000e+00  2.083588888888889051e+05  4.243385880536737886e+02
1.000000000000000000e+01  2.124751282051281887e+05  4.366724256963984203e+02
1.012500000000000000e+01  2.096500000000000000e+05  4.394299537019823561e+02
1.025000000000000000e+01  2.116618181818181765e+05  4.386568530306391835e+02
1.037500000000000000e+01  2.089845333333333547e+05  4.416471794443061185e+02
1.050000000000000000e+01  2.103773170731707069e+05  4.237810668534384035e+02
1.062500000000000000e+01  2.105376000000000058e+05  4.432851903684579611e+02
1.075000000000000000e+01  2.100256962025316607e+05  4.313916064947740097e+02
1.087500000000000000e+01  2.087801333333333314e+05  4.414311472673600747e+02
1.100000000000000000e+01  2.060863636363636469e+05  4.328408941740850651e+02
1.112500000000000000e+01  2.071392105263157864e+05  4.367906992581787335e+02
1.125000000000000000e+01  2.040405405405405327e+05  4.393305385844964803e+02
1.137500000000000000e+01  2.057091891891892010e+05  4.411233087894371465e+02
1.150000000000000000e+01  2.004753947368421068e+05  4.297073305043755909e+02
1.162500000000000000e+01  2.027625675675675739e+05  4.379525416984487265e+02
1.175000000000000000e+01  1.998294666666666744e+05  4.318651435601422008e+02
1.187500000000000000e+01  2.015344871794871578e+05  4.252814166716040063e+02
1.200000000000000000e+01  2.011052054794520373e+05  4.391362066534654787e+02
1.212500000000000000e+01  2.000818750000000000e+05  4.184156314300411168e+02
1.225000000000000000e+01  2.020900000000000000e+05  4.495442136208628767e+02
1.237500000000000000e+01  2.010054430379746773e+05  4.220261707143594663e+02
1.250000000000000000e+01  2.008160000000000000e+05  4.481249825662479225e+02
1.262500000000000000e+01  2.011604000000000233e+05  4.333009423791583004e+02
1.275000000000000000e+01  2.025751388888888760e+05  4.437882960348671304e+02
1.287500000000000000e+01  2.005390909090909117e+05  4.269757188211174253e+02
1.300000000000000000e+01  2.048680000000000000e+05  4.526234638195417119e+02
1.312500000000000000e+01  2.009364000000000233e+05  4.330596263795552545e+02
1.325000000000000000e+01  2.056030666666666802e+05  4.380595799152845302e+02
1.337500000000000000e+01  2.063836486486486392e+05  4.418458732960190218e+02
1.350000000000000000e+01  2.105081818181818235e+05  4.374597974444798183e+02
1.362500000000000000e+01  2.170497101449275506e+05  4.692497822248215584e+02
1.375000000000000000e+01  2.184071794871794991e+05  4.427261491368225279e+02
1.387500000000000000e+01  2.290130000000000000e+05  4.785530273647843273e+02
1.400000000000000000e+01  2.316895945945945859e+05  4.681515061650624148e+02
1.412500000000000000e+01  2.401769014084507071e+05  4.866149690968998129e+02
1.425000000000000000e+01  2.345119736842105340e+05  4.647557105605212087e+02
1.437500000000000000e+01  2.419372463768116140e+05  4.954226309736196185e+02
1.450000000000000000e+01  2.790464864864865085e+05  5.137731918097246080e+02
1.462500000000000000e+01  2.129943421052631747e+05  4.429209853997428468e+02
1.475000000000000000e+01  2.267878666666666686e+05  4.600746412872106248e+02
1.487500000000000000e+01  2.261843835616438300e+05  4.657135760552018269e+02
1.500000000000000000e+01  2.245057746478873305e+05  4.704718073209409113e+02
1.512500000000000000e+01  2.147770270270270121e+05  4.507410098920876749e+02
1.525000000000000000e+01  2.161350000000000000e+05  4.649032157341998754e+02
1.537500000000000000e+01  2.061604054054053850e+05  4.416068383843438028e+02
1.550000000000000000e+01  2.103736764705882524e+05  4.653612978571086387e+02
1.562500000000000000e+01  2.077517105263157864e+05  4.374360064001257911e+02
1.575000000000000000e+01  2.082860294117646990e+05  4.630465301676992453e+02
1.587500000000000000e+01  2.038129333333333198e+05  4.361483743457545756e+02
1.600000000000000000e+01  2.061698648648648523e+05  4.416169696073085333e+02
1.612500000000000000e+01  2.038353947368421068e+05  4.332933495119697227e+02
1.625000000000000000e+01  2.084087323943662050e+05  4.532917362309736404e+02
1.637500000000000000e+01  2.051834246575342549e+05  4.435664878275442788e+02
1.650000000000000000e+01  2.016749295774647908e+05  4.459085529697596826e+02
1.662500000000000000e+01  2.031246575342465658e+05  4.413355513307936349e+02
1.675000000000000000e+01  1.997553521126760461e+05  4.437813610879993576e+02
1.687500000000000000e+01  2.005645833333333430e+05  4.415805078435951714e+02
1.700000000000000000e+01  1.940429577464788745e+05  4.373899385463718659e+02
1.712500000000000000e+01  1.967400000000000000e+05  4.435538298786293012e+02
1.725000000000000000e+01  1.924368055555555329e+05  4.325405631089041663e+02
1.737500000000000000e+01  1.950315068493150757e+05  4.324540593139940370e+02
1.750000000000000000e+01  1.950060000000000000e+05  4.266211434047777971e+02
1.762500000000000000e+01  1.939640000000000000e+05  4.404134421200152474e+02
1.775000000000000000e+01  1.937460000000000000e+05  4.252406377570234213e+02
1.787500000000000000e+01  1.930060000000000000e+05  4.393244814485074698e+02
1.800000000000000000e+01  1.973347945205479336e+05  4.350001671616487897e+02
1.812500000000000000e+01  1.977830000000000000e+05  4.447280067636847321e+02
1.825000000000000000e+01  2.061295833333333139e+05  4.476647870606689139e+02
1.837500000000000000e+01  2.059470000000000000e+05  4.538138384844605184e+02
1.850000000000000000e+01  2.179570000000000000e+05  4.668586509854990254e+02
1.862500000000000000e+01  2.122005633802816737e+05  4.573967895066404594e+02
1.875000000000000000e+01  2.159336363636363531e+05  4.430612889715416713e+02
1.887500000000000000e+01  2.111130000000000000e+05  4.594703472477848436e+02
1.900000000000000000e+01  2.063310666666666511e+05  4.388344360031721294e+02
1.912500000000000000e+01  2.017960000000000000e+05  4.492170967360881946e+02
1.925000000000000000e+01  1.978647222222222190e+05  4.385983127398822603e+02
1.937500000000000000e+01  1.973350000000000000e+05  4.442240425731142182e+02
1.950000000000000000e+01  1.939441095890410943e+05  4.312468013974351493e+02
1.962500000000000000e+01  1.945279710144927667e+05  4.442377932720543754e+02
1.975000000000000000e+01  1.886273239436619624e+05  4.312430881431214402e+02
1.987500000000000000e+01  1.920210000000000000e+05  4.382020082108250563e+02
2.000000000000000000e+01  1.888950000000000000e+05  4.346205241357108093e+02
2.012500000000000000e+01  1.927716000000000058e+05  4.241699659334686885e+02
2.025000000000000000e+01  1.905863380281690042e+05  4.334766699697389640e+02
2.037500000000000000e+01  1.935051999999999825e+05  4.249762973782576978e+02
2.050000000000000000e+01  1.975240000000000000e+05  4.444367221551342482e+02
2.062500000000000000e+01  1.987832394366197113e+05  4.427002095107847026e+02
2.075000000000000000e+01  2.067376056338027993e+05  4.514707170696178196e+02
2.087500000000000000e+01  2.103470833333333430e+05  4.522213051110001629e+02
2.100000000000000000e+01  2.152530434782608645e+05  4.673035981073040261e+02
2.112500000000000000e+01  2.130198591549295525e+05  4.582789319274039599e+02
2.125000000000000000e+01  2.123292753623188473e+05  4.641190701071602120e+02
2.137500000000000000e+01  2.039307042253521213e+05  4.483954067400316603e+02
2.150000000000000000e+01  2.024536111111111240e+05  4.436551585312155908e+02
2.162500000000000000e+01  1.971586842105263204e+05  4.261379177340921842e+02
2.175000000000000000e+01  1.930650724637681269e+05  4.425642518236516025e+02
2.187500000000000000e+01  1.903536486486486392e+05  4.243397957241439258e+02
2.200000000000000000e+01  1.861563768115942075e+05  4.345736937690891182e+02
2.212500000000000000e+01  1.866345833333333430e+05  4.259698221140223495e+02
2.225000000000000000e+01  1.856950000000000000e+05  4.309234270726065006e+02
2.237500000000000000e+01  1.875694366197182972e+05  4.300321076021375006e+02
2.250000000000000000e+01  1.840959420289855334e+05  4.321620056874971851e+02
2.262500000000000000e+01  1.859643661971830879e+05  4.281882176938906355e+02
2.275000000000000000e+01  1.835957971014492796e+05  4.315745656953076832e+02
2.287500000000000000e+01  1.881858904109589057e+05  4.247966851115265285e+02
2.300000000000000000e+01  1.829313888888888760e+05  4.217226119379337774e+02
2.312500000000000000e+01  1.862939726027397264e+05  4.226559545545707124e+02
2.325000000000000000e+01  1.855427777777777810e+05  4.247220405493397948e+02
2.337500000000000000e+01  1.857090140845070418e+05  4.278941389734426366e+02
2.350000000000000000e+01  1.856760000000000000e+05  4.309013808286067615e+02
2.362500000000000000e+01  1.840390000000000000e+05  4.289976689913361270e+02
2.375000000000000000e+01  1.872342253521126695e+05  4.296476737823562075e+02
2.387500000000000000e+01  1.840444117647059029e+05  4.352671394660546866e+02
2.400000000000000000e+01  1.902152777777777810e+05  4.300366496727091317e+02
2.412500000000000000e+01  1.879110000000000000e+05  4.334870240272481396e+02
2.425000000000000000e+01  1.966360869565217581e+05  4.466384279461524898e+02
2.437500000000000000e+01  1.925858666666666686e+05  4.239655751224253208e+02
2.450000000000000000e+01  1.965513698630137078e+05  4.341358270253670639e+02
2.462500000000000000e+01  2.009440000000000000e+05  4.482677771154201309e+02
2.475000000000000000e+01  1.999020000000000000e+05  4.471040147437730070e+02
2.487500000000000000e+01  2.061421126760563347e+05  4.508200335370705147e+02
2.500000000000000000e+01  2.059902816901408660e+05  4.506539804739776969e+02
2.512500000000000000e+01  2.089905797101449280e+05  4.604556750561897047e+02
2.525000000000000000e+01  2.003735211267605482e+05  4.444675003387418997e+02
2.537500000000000000e+01  2.032540000000000000e+05  4.508369993689515240e+02
2.550000000000000000e+01  1.928190000000000000e+05  4.391116031261300918e+02
2.562500000000000000e+01  1.908910294117646990e+05  4.432893766528667925e+02
2.575000000000000000e+01  1.842791999999999825e+05  4.147214969108787272e+02
2.587500000000000000e+01  1.876350000000000000e+05  4.212986678919927499e+02
2.600000000000000000e+01  1.834639130434782419e+05  4.314195293840595582e+02
2.612500000000000000e+01  1.821011111111111240e+05  4.207644791490606053e+02
2.625000000000000000e+01  1.826249275362318731e+05  4.304319523646764765e+02
2.637500000000000000e+01  1.805743661971830879e+05  4.219372764580398893e+02
2.650000000000000000e+01  1.834473239436619624e+05  4.252805648247929184e+02
2.662500000000000000e+01  1.791442028985507204e+05  4.263103279234293836e+02
2.675000000000000000e+01  1.820700000000000000e+05  4.297774955161960406e+02
2.687500000000000000e+01  1.800530000000000000e+05  4.243265252137791776e+02
2.700000000000000000e+01  1.833890000000000000e+05  4.282394190169793546e+02
2.712500000000000000e+01  1.812158108108107990e+05  4.140294211499878543e+02
2.725000000000000000e+01  1.837490277777777519e+05  4.226640369339269228e+02
2.737500000000000000e+01  1.849854054054053850e+05  4.183135119768551249e+02
2.750000000000000000e+01  1.861697014925373078e+05  4.410279563426623213e+02
2.762500000000000000e+01  1.926565277777777810e+05  4.327874276844561905e+02
2.775000000000000000e+01  1.979866197183098411e+05  4.418122630468911325e+02
2.787500000000000000e+01  2.097281159420289914e+05  4.612674428726053861e+02
2.800000000000000000e+01  2.165750000000000000e+05  4.653761919135958465e+02
2.812500000000000000e+01  2.293066176470588252e+05  4.858507280336172016e+02
2.825000000000000000e+01  2.303520000000000000e+05  4.799499973955620362e+02
2.837500000000000000e+01  2.435310000000000000e+05  4.934886016920755765e+02
2.850000000000000000e+01  2.467490540540540533e+05  4.831265541744000416e+02
2.862500000000000000e+01  2.558140277777777810e+05  4.987064091845306280e+02
2.875000000000000000e+01  2.607519444444444671e+05  5.034966086048081024e+02
2.887500000000000000e+01  2.608080000000000291e+05  5.106936459365830387e+02
2.900000000000000000e+01  2.594828985507246689e+05  5.130726267000131884e+02
2.912500000000000000e+01  2.961207042253520922e+05  5.403239677094965145e+02
2.925000000000000000e+01  2.227114084507042135e+05  4.685879085614460564e+02
2.937500000000000000e+01  2.130439705882353010e+05  4.683054235466245245e+02
2.950000000000000000e+01  2.077950000000000000e+05  4.558453685187554925e+02
2.962500000000000000e+01  1.920680000000000000e+05  4.382556331640244593e+02
2.975000000000000000e+01  1.940471014492753602e+05  4.436883797011969932e+02
2.987500000000000000e+01  1.784772972972972784e+05  4.108891283810849018e+02
3.000000000000000000e+01  1.751847222222222190e+05  4.126965955011884830e+02
3.012500000000000000e+01  1.799486111111111240e+05  4.182702936860887348e+02
3.025000000000000000e+01  1.783120000000000000e+05  4.222700557700013064e+02
3.037500000000000000e+01  1.789410000000000000e+05  4.230141841593494405e+02
3.050000000000000000e+01  1.745140000000000000e+05  4.177487283044677042e+02
3.062500000000000000e+01  1.788570000000000000e+05  4.229148850537185922e+02
3.075000000000000000e+01  1.758090000000000000e+05  4.192958382812784635e+02
3.087500000000000000e+01  1.783224637681159365e+05  4.253314558094512563e+02
3.100000000000000000e+01  1.735776811594203173e+05  4.196347217842538839e+02
3.112500000000000000e+01  1.790427536231884151e+05  4.261896011629876853e+02
3.125000000000000000e+01  1.740305479452054715e+05  4.085077815889070507e+02
3.137500000000000000e+01  1.770309459459459467e+05  4.092208518936241148e+02
3.150000000000000000e+01  1.751597183098591631e+05  4.155630878985822392e+02
3.162500000000000000e+01  1.746150000000000000e+05  4.178695968840040109e+02
3.175000000000000000e+01  1.775695833333333430e+05  4.154962032406643289e+02
3.187500000000000000e+01  1.762853623188405763e+05  4.228950492052396157e+02
3.200000000000000000e+01  1.797346376811594237e+05  4.270122802714525392e+02
3.212500000000000000e+01  1.782939436619718326e+05  4.192645481755805008e+02
3.225000000000000000e+01  1.802917910447761242e+05  4.340098591137937092e+02
3.237500000000000000e+01  1.803160000000000000e+05  4.246363149802428438e+02
3.250000000000000000e+01  1.848710144927536312e+05  4.330707846967583237e+02
3.262500000000000000e+01  1.812044594594594673e+05  4.140164535534816537e+02
3.275000000000000000e+01  1.877192957746478787e+05  4.302038610139882735e+02
3.287500000000000000e+01  1.874755555555555329e+05  4.269284497835297998e+02
3.300000000000000000e+01  1.861714084507042426e+05  4.284265117115349426e+02
3.312500000000000000e+01  1.893390000000000000e+05  4.351310147530281256e+02
3.325000000000000000e+01  1.881220000000000000e+05  4.337303309661430717e+02
3.337500000000000000e+01  1.918380000000000000e+05  4.379931506313768637e+02
3.350000000000000000e+01  1.946842028985507204e+05  4.444161485426539002e+02
3.362500000000000000e+01  2.052280000000000000e+05  4.530209708170252156e+02
3.375000000000000000e+01  2.188045588235294272e+05  4.745945501417198784e+02
3.387500000000000000e+01  2.318430434782608645e+05  4.849774093570147215e+02
3.400000000000000000e+01  2.367156944444444380e+05  4.797293596265026281e+02
3.412500000000000000e+01  2.436812000000000116e+05  4.769022820942112730e+02
3.425000000000000000e+01  2.360460869565217290e+05  4.893537010573235193e+02
3.437500000000000000e+01  2.258071830985915440e+05  4.718334454424018531e+02
3.450000000000000000e+01  2.144050704225352092e+05  4.597665502168183593e+02
3.462500000000000000e+01  2.012317391304347839e+05  4.518275568696733444e+02
3.475000000000000000e+01  1.903060000000000000e+05  4.362407592144502928e+02
3.487500000000000000e+01  1.843533802816901589e+05  4.263295131689213235e+02
3.500000000000000000e+01  1.838774626865671598e+05  4.383044397577314726e+02
3.512500000000000000e+01  1.789271014492753602e+05  4.260519309275465503e+02
3.525000000000000000e+01  1.799304347826087032e+05  4.272448036468392161e+02
3.537500000000000000e+01  1.761012676056337950e+05  4.166784948397174730e+02
3.550000000000000000e+01  1.778501351351351477e+05  4.101665689899894005e+02
3.562500000000000000e+01  1.769817567567567457e+05  4.091639956184385483e+02
3.575000000000000000e+01  1.744613043478260806e+05  4.207014726008446246e+02
3.587500000000000000e+01  1.752198591549295816e+05  4.156344232793035758e+02
3.600000000000000000e+01  1.751170000000000000e+05  4.184698316485909118e+02
3.612500000000000000e+01  1.781190000000000000e+05  4.220414671569607776e+02
3.625000000000000000e+01  1.819197058823529223e+05  4.327473691048023170e+02
3.637500000000000000e+01  1.905805797101449280e+05  4.397074221539232894e+02
3.650000000000000000e+01  1.945776811594202882e+05  4.442945504426484149e+02
3.662500000000000000e+01  2.066523529411764757e+05  4.612270192885487745e+02
3.675000000000000000e+01  2.094010000000000000e+05  4.576035401960959348e+02
3.687500000000000000e+01  2.161323684210526408e+05  4.461718129864336220e+02
3.700000000000000000e+01  2.130401388888889051e+05  4.551069734173344727e+02
3.712500000000000000e+01  2.074869014084507071e+05  4.522881279498590175e+02
3.725000000000000000e+01  1.984350000000000000e+05  4.454604359536321567e+02
3.737500000000000000e+01  1.867150000000000000e+05  4.321053112378971832e+02
3.750000000000000000e+01  1.817630000000000000e+05  4.263367213834623612e+02
3.762500000000000000e+01  1.720244927536231698e+05  4.177530387014023745e+02
3.775000000000000000e+01  1.719991304347825935e+05  4.177222419929019566e+02
3.787500000000000000e+01  1.679947761194029881e+05  4.189474075274879965e+02
3.800000000000000000e+01  1.692860000000000000e+05  4.114437993213654181e+02
3.812500000000000000e+01  1.655560869565217290e+05  4.098236822532365409e+02
3.825000000000000000e+01  1.706009090909090883e+05  3.938168807163934844e+02
3.837500000000000000e+01  1.683697183098591340e+05  4.074289064691184876e+02
3.850000000000000000e+01  1.694420000000000000e+05  4.116333319836963938e+02
3.862500000000000000e+01  1.712121126760563347e+05  4.108535924990206354e+02
3.875000000000000000e+01  1.718002898550724785e+05  4.174807170736564785e+02
3.887500000000000000e+01  1.782250000000000000e+05  4.221670285562339018e+02
3.900000000000000000e+01  1.822760000000000000e+05  4.269379345993982042e+02
3.912500000000000000e+01  1.921165217391304323e+05  4.414757288409404055e+02
3.925000000000000000e+01  1.985280000000000000e+05  4.455648101006182742e+02
3.937500000000000000e+01  2.058063636363636469e+05  4.672038918759367903e+02
3.950000000000000000e+01  2.039698550724637462e+05  4.548911297536877782e+02
3.962500000000000000e+01  2.086205333333333256e+05  4.412623910756249188e+02
3.975000000000000000e+01  2.003189041095890279e+05  4.382768763910069652e+02
3.987500000000000000e+01  1.938378873239436653e+05  4.371587540412224939e+02
4.000000000000000000e+01  1.876420000000000000e+05  4.331766383359102406e+02
4.012500000000000000e+01  1.802830000000000000e+05  4.245974564219620788e+02
4.025000000000000000e+01  1.733727536231884151e+05  4.193869361656643378e+02
4.037500000000000000e+01  1.677742253521126695e+05  4.067077674370532918e+02
4.050000000000000000e+01  1.728979710144927376e+05  4.188122953189829332e+02
4.062500000000000000e+01  1.646101470588235243e+05  4.116450193702315801e+02
4.075000000000000000e+01  1.697023188405797118e+05  4.149238155816317999e+02
4.087500000000000000e+01  1.650620588235293981e+05  4.122096860331105290e+02
4.100000000000000000e+01  1.645387837837837869e+05  3.945184348939182541e+02
4.112500000000000000e+01  1.633887500000000000e+05  3.985601254655451839e+02
4.125000000000000000e+01  1.660215277777777810e+05  4.017584083411815072e+02
4.137500000000000000e+01  1.670052112676056568e+05  4.057745989997574725e+02
4.150000000000000000e+01  1.682030000000000000e+05  4.101255905207574415e+02
4.162500000000000000e+01  1.746621739130434871e+05  4.209435945193318958e+02
4.175000000000000000e+01  1.772886956521738903e+05  4.240968014951743044e+02
4.187500000000000000e+01  1.842491304347825935e+05  4.323417718512295096e+02
4.200000000000000000e+01  1.855831884057970892e+05  4.339041366845539187e+02
4.212500000000000000e+01  1.927985294117646990e+05  4.454986805754464285e+02
4.225000000000000000e+01  1.916468115942028817e+05  4.409357114334325729e+02
4.237500000000000000e+01  1.927383783783783729e+05  4.269895638715573796e+02
4.250000000000000000e+01  1.888954794520547730e+05  4.255968180442231414e+02
4.262500000000000000e+01  1.889615492957746610e+05  4.316249749771242818e+02
4.275000000000000000e+01  1.883940000000000000e+05  4.340437765940205281e+02
4.287500000000000000e+01  1.854438028169014142e+05  4.275884917419837166e+02
4.300000000000000000e+01  1.840715942028985592e+05  4.321334266944743945e+02
4.312500000000000000e+01  1.825589855072463979e+05  4.303542353758147101e+02
4.325000000000000000e+01  1.795855072463768302e+05  4.268350919936104333e+02
4.337500000000000000e+01  1.766749275362318731e+05  4.233620598641417700e+02
4.350000000000000000e+01  1.780120289855072333e+05  4.249610728802792892e+02
4.362500000000000000e+01  1.738841791044776037e+05  4.262276831346713379e+02
4.375000000000000000e+01  1.809751999999999825e+05  4.109868448827367047e+02
4.387500000000000000e+01  1.889232876712328871e+05  4.256281439766616472e+02
4.400000000000000000e+01  1.492234722222222190e+05  3.808915538202506923e+02
4.412500000000000000e+01  1.723420289855072333e+05  4.181384215191359885e+02
4.425000000000000000e+01  1.626810144927536312e+05  4.062495665904979205e+02
4.437500000000000000e+01  1.657570000000000000e+05  4.071326565138198248e+02
4.450000000000000000e+01  1.720549275362319022e+05  4.177899917550323607e+02
4.462500000000000000e+01  1.711550724637681269e+05  4.166960292111558601e+02
4.475000000000000000e+01  1.696586956521739194e+05  4.148704825946193182e+02
4.487500000000000000e+01  1.705240579710144957e+05  4.159271824851252291e+02
4.500000000000000000e+01  1.703353623188405763e+05  4.156969939249549952e+02
4.512500000000000000e+01  1.714041095890410943e+05  4.054134988938847073e+02
4.525000000000000000e+01  1.669567123287671129e+05  4.001193291700990926e+02
4.537500000000000000e+01  1.676677464788732468e+05  4.065786872461870303e+02
4.550000000000000000e+01  1.690983098591549206e+05  4.083094947746261596e+02
4.562500000000000000e+01  1.668191304347826226e+05  4.113840042974549647e+02
4.575000000000000000e+01  1.704480000000000000e+05  4.128534849071762665e+02
4.587500000000000000e+01  1.696079710144927376e+05  4.148084588710007097e+02
4.600000000000000000e+01  1.712088405797101441e+05  4.167614762959067320e+02
4.612500000000000000e+01  1.703408823529411748e+05  4.187492188703141665e+02
4.625000000000000000e+01  1.747710000000000000e+05  4.180562163154615973e+02
4.637500000000000000e+01  1.721217647058823495e+05  4.209324999927815156e+02
4.650000000000000000e+01  1.806090000000000000e+05  4.249811760537165242e+02
4.662500000000000000e+01  1.809905263157894660e+05  4.082913182447265967e+02
4.675000000000000000e+01  1.891520000000000000e+05  4.349160838598637042e+02
4.687500000000000000e+01  1.960904166666666570e+05  4.366273704752694016e+02
4.700000000000000000e+01  2.007518840579710086e+05  4.512885237328931680e+02
4.712500000000000000e+01  2.085110000000000000e+05  4.566300471935678615e+02
4.725000000000000000e+01  2.067250000000000000e+05  4.546702101523696911e+02
4.737500000000000000e+01  2.129770000000000000e+05  4.614943119909496545e+02
4.750000000000000000e+01  2.060295588235294272e+05  4.605314883155155030e+02
4.762500000000000000e+01  2.073379411764706019e+05  4.619914673637977671e+02
4.775000000000000000e+01  1.929519117647058738e+05  4.456758552951681054e+02
4.787500000000000000e+01  1.957240579710144957e+05  4.456014346041976637e+02
4.800000000000000000e+01  1.806598684210526408e+05  4.079181869320328246e+02
4.812500000000000000e+01  1.767675000000000000e+05  4.145567411907164797e+02
4.825000000000000000e+01  1.700023943661971716e+05  4.093995535482989681e+02
4.837500000000000000e+01  1.654940000000000000e+05  4.068095377446305747e+02
4.850000000000000000e+01  1.649436619718309666e+05  4.032623362071068414e+02
4.862500000000000000e+01  1.637746376811594237e+05  4.076127858087861568e+02
4.875000000000000000e+01  1.631761764705882233e+05  4.098481130596391040e+02
4.887500000000000000e+01  1.614920588235293981e+05  4.077276361243073666e+02
4.900000000000000000e+01  1.649344117647059029e+05  4.120502686268175694e+02
4.912500000000000000e+01  1.635382608695652161e+05  4.073185247350193094e+02
4.925000000000000000e+01  1.694062686567164201e+05  4.207037246919781524e+02
4.937500000000000000e+01  1.680017948717948748e+05  3.882922115515720520e+02
4.950000000000000000e+01  1.744555555555555620e+05  4.118368219346523347e+02
4.962500000000000000e+01  1.740229577464788745e+05  4.142124215575684616e+02
4.975000000000000000e+01  1.785593055555555620e+05  4.166525229080930899e+02
4.987500000000000000e+01  1.805258823529411748e+05  4.310863801235521464e+02
5.000000000000000000e+01  1.798137681159420463e+05  4.271062686911812420e+02
5.012500000000000000e+01  1.794231884057970892e+05  4.266421503668493074e+02
5.025000000000000000e+01  1.769188235294117767e+05  4.267579153795513776e+02
5.037500000000000000e+01  1.772286764705882233e+05  4.271314605622912381e+02
5.050000000000000000e+01  1.727980882352940971e+05  4.217586809398200103e+02
5.062500000000000000e+01  1.722936764705882524e+05  4.211426569979021224e+02
5.075000000000000000e+01  1.672154545454545587e+05  3.898897915908761433e+02
5.087500000000000000e+01  1.668683333333333139e+05  4.027817049616974145e+02
5.100000000000000000e+01  1.691027397260274156e+05  4.026826443566368425e+02
5.112500000000000000e+01  1.668515942028985301e+05  4.114240309574992693e+02
5.125000000000000000e+01  1.679670000000000000e+05  4.098377727833294557e+02
5.137500000000000000e+01  1.640110294117646990e+05  4.108952217025565687e+02
5.150000000000000000e+01  1.692275362318840344e+05  4.143429850024638199e+02
5.162500000000000000e+01  1.661604411764706019e+05  4.135789077984738356e+02
5.175000000000000000e+01  1.674876811594202882e+05  4.122075191664786757e+02
5.187500000000000000e+01  1.604339130434782419e+05  4.034340617969947971e+02
5.200000000000000000e+01  1.632502941176470486e+05  4.099411828011445209e+02
5.212500000000000000e+01  1.577172727272727352e+05  3.786546432344059099e+02
5.225000000000000000e+01  1.592354166666666570e+05  3.934618287053372114e+02
5.237500000000000000e+01  1.570395774647887156e+05  3.934815782601180558e+02
5.250000000000000000e+01  1.584485507246376947e+05  4.009300519195850256e+02
5.262500000000000000e+01  1.589290000000000000e+05  3.986590021559779302e+02
5.275000000000000000e+01  1.578788235294117767e+05  4.031405689571570861e+02
5.287500000000000000e+01  1.582926760563380376e+05  3.950483536805151630e+02
5.300000000000000000e+01  1.547648529411764757e+05  3.991450367731294477e+02
5.312500000000000000e+01  1.611105797101449280e+05  4.042839542301587699e+02
5.325000000000000000e+01  1.557613235294117476e+05  4.004279447382957073e+02
5.337500000000000000e+01  1.633727941176470486e+05  4.100949600977533009e+02
5.350000000000000000e+01  1.603420000000000000e+05  3.868494970054030659e+02
5.362500000000000000e+01  1.646745205479451979e+05  3.973752313595170449e+02
5.375000000000000000e+01  1.638877464788732468e+05  4.019694868512440848e+02
5.387500000000000000e+01  1.664640579710144957e+05  4.109459581870888769e+02
5.400000000000000000e+01  1.690588732394366234e+05  4.082618796174097042e+02
5.412500000000000000e+01  1.643833333333333430e+05  4.083695636100856063e+02
5.425000000000000000e+01  1.674886956521738903e+05  4.122087675595099086e+02
5.437500000000000000e+01  1.632276470588235243e+05  4.099127470665098372e+02
5.450000000000000000e+01  1.683966666666666861e+05  4.133245674619799956e+02
5.462500000000000000e+01  1.583482352941176505e+05  4.037394411401738807e+02
5.475000000000000000e+01  1.662667164179104439e+05  4.167871096434977858e+02
5.487500000000000000e+01  1.565485526315789612e+05  3.797228678539009366e+02
5.500000000000000000e+01  1.567510958904109430e+05  3.876973949253475666e+02
5.512500000000000000e+01  1.579180281690140837e+05  3.945805755345400030e+02
5.525000000000000000e+01  1.584340000000000000e+05  3.980376866579344437e+02
5.537500000000000000e+01  1.599830000000000000e+05  3.999787494355168747e+02
5.550000000000000000e+01  1.560624637681159365e+05  3.978997846258967570e+02
5.562500000000000000e+01  1.581033802816901298e+05  3.948120718882701112e+02
5.575000000000000000e+01  1.561535294117647281e+05  4.009317651132379297e+02
5.587500000000000000e+01  1.629116176470588252e+05  4.095157332913458959e+02
5.600000000000000000e+01  1.615516417910447926e+05  4.108348785018488343e+02
5.612500000000000000e+01  1.703573529411764757e+05  4.187694632155015597e+02
5.625000000000000000e+01  1.690386486486486392e+05  3.998767615120567598e+02
5.637500000000000000e+01  1.762079729729729879e+05  4.082685607258248979e+02
5.650000000000000000e+01  1.775554929577464936e+05  4.183954007476567654e+02
5.662500000000000000e+01  1.809845070422535064e+05  4.224161804172256893e+02
5.675000000000000000e+01  1.833440000000000000e+05  4.281868750907715366e+02
5.687500000000000000e+01  1.839190000000000000e+05  4.288577852855186165e+02
5.700000000000000000e+01  1.899627536231884151e+05  4.389941195608794260e+02
5.712500000000000000e+01  1.794439705882353010e+05  4.297926644663281763e+02
5.725000000000000000e+01  1.823448529411764757e+05  4.332527401543018755e+02
5.737500000000000000e+01  1.746922058823529223e+05  4.240639243530582121e+02
5.750000000000000000e+01  1.766549253731343197e+05  4.296101109200843666e+02
5.762500000000000000e+01  1.624680555555555620e+05  3.974355973140122273e+02
5.775000000000000000e+01  1.605597368421052524e+05  3.845568464402165887e+02
5.787500000000000000e+01  1.568187323943662050e+05  3.932048039553948229e+02
5.800000000000000000e+01  1.539708333333333430e+05  3.869029151360076639e+02
5.812500000000000000e+01  1.520480000000000000e+05  3.899333276343534180e+02
5.825000000000000000e+01  1.509460000000000000e+05  3.885176958646800358e+02
5.837500000000000000e+01  1.551261764705882524e+05  3.996106993971312136e+02
5.850000000000000000e+01  1.706579411764705728e+05  4.191387507586756556e+02
5.862500000000000000e+01  1.019711940298507398e+05  3.264001660376359268e+02
5.875000000000000000e+01  1.726656521739130549e+05  4.185308267380752341e+02
5.887500000000000000e+01  1.873408955223880766e+05  4.424130353293861617e+02
5.900000000000000000e+01  1.722414084507042135e+05  4.120867300950282015e+02
5.912500000000000000e+01  1.668427272727272648e+05  3.894550123076737123e+02
5.925000000000000000e+01  1.667944444444444671e+05  4.026925197121232713e+02
5.937500000000000000e+01  1.646094366197183263e+05  4.028535637802233964e+02
5.950000000000000000e+01  1.682730000000000000e+05  4.102109213563188632e+02
5.962500000000000000e+01  1.643153623188405763e+05  4.082851263289326198e+02
5.975000000000000000e+01  1.680916176470588252e+05  4.159753463299541067e+02
5.987500000000000000e+01  1.635078260869565129e+05  4.072806215938808236e+02
6.000000000000000000e+01  1.731985294117646990e+05  4.222470885704581747e+02
6.012500000000000000e+01  1.669573134328357992e+05  4.176517856232702002e+02
6.025000000000000000e+01  1.727315942028985301e+05  4.186107388023170870e+02
6.037500000000000000e+01  1.711322388059701771e+05  4.228414317027677498e+02
6.050000000000000000e+01  1.782597530864197470e+05  3.924941253952031275e+02
6.062500000000000000e+01  1.733122222222222190e+05  4.104850713816039161e+02
6.075000000000000000e+01  1.727300000000000000e+05  4.156079883736596230e+02
6.087500000000000000e+01  1.754200000000000000e+05  4.188317084462445337e+02
6.100000000000000000e+01  1.699275362318840635e+05  4.151990536457039980e+02
6.112500000000000000e+01  1.715740579710144957e+05  4.172057508248406634e+02
6.125000000000000000e+01  1.615526865671641717e+05  4.108362069618116834e+02
6.137500000000000000e+01  1.654302898550724785e+05  4.096679512577895821e+02
6.150000000000000000e+01  1.587682352941176505e+05  4.042745221670002707e+02
6.162500000000000000e+01  1.637791044776119525e+05  4.136574636283207269e+02
6.175000000000000000e+01  1.532827536231884151e+05  3.943402627251409172e+02
6.187500000000000000e+01  1.559958750000000000e+05  3.694541793308068236e+02
6.200000000000000000e+01  1.565277777777777810e+05  3.901022737060337136e+02
6.212500000000000000e+01  1.566690000000000000e+05  3.958143504220128648e+02
6.225000000000000000e+01  1.605830000000000000e+05  4.007280873609934702e+02
6.237500000000000000e+01  1.590863235294117476e+05  4.046792965361370307e+02
6.250000000000000000e+01  1.720214492753623344e+05  4.177493432162568183e+02
6.262500000000000000e+01  1.755944927536231990e+05  4.220655641896057091e+02
6.275000000000000000e+01  1.912886956521739194e+05  4.405235471449419720e+02
6.287500000000000000e+01  2.001195522388059762e+05  4.572528066668619431e+02
6.300000000000000000e+01  2.202632352941176505e+05  4.761738818372388096e+02
6.312500000000000000e+01  2.264652173913043516e+05  4.793196449042938525e+02
6.325000000000000000e+01  2.495832051282051252e+05  4.732704593349963602e+02
6.337500000000000000e+01  2.581901388888889051e+05  5.010171559801318608e+02
6.350000000000000000e+01  2.663253521126760170e+05  5.124200335811574405e+02
6.362500000000000000e+01  2.724511594202898559e+05  5.257373174391562998e+02
6.375000000000000000e+01  2.677190000000000000e+05  5.174156936158778990e+02
6.387500000000000000e+01  2.706128985507246107e+05  5.239607090390244366e+02
6.400000000000000000e+01  2.569195588235293981e+05  5.142723173922412343e+02
6.412500000000000000e+01  2.480992753623188473e+05  5.016920539875397367e+02
6.425000000000000000e+01  2.289452941176470777e+05  4.854677942343388395e+02
6.437500000000000000e+01  2.252072463768115849e+05  4.779865264970420071e+02
6.450000000000000000e+01  1.946890909090908826e+05  4.544099798112560507e+02
6.462500000000000000e+01  1.843863636363636469e+05  4.094190603063672143e+02
6.475000000000000000e+01  1.720724657534246508e+05  4.062031444463206640e+02
6.487500000000000000e+01  1.654553521126760461e+05  4.038873543955870673e+02
6.500000000000000000e+01  1.594330000000000000e+05  3.992906209767517112e+02
6.512500000000000000e+01  1.557804347826087032e+05  3.975400888504531736e+02
6.525000000000000000e+01  1.558670000000000000e+05  3.947999493414354788e+02
6.537500000000000000e+01  1.521434782608695677e+05  3.928720608629217281e+02
6.550000000000000000e+01  1.529561764705882233e+05  3.968058562360850487e+02
6.562500000000000000e+01  1.514028985507246398e+05  3.919147145199538045e+02
6.575000000000000000e+01  1.581561194029850885e+05  4.064944485348918874e+02
6.587500000000000000e+01  1.465959090909091174e+05  3.943101693361119260e+02
6.600000000000000000e+01  1.547000000000000000e+05  3.774742933038793922e+02
6.612500000000000000e+01  1.526840000000000000e+05  3.774984326678280127e+02
6.625000000000000000e+01  1.554463380281690042e+05  3.914804630955659377e+02
6.637500000000000000e+01  1.534080000000000000e+05  3.916733332765967361e+02
6.650000000000000000e+01  1.543120000000000000e+05  3.928256610762591094e+02
6.662500000000000000e+01  1.570891304347825935e+05  3.992064434588384643e+02
6.675000000000000000e+01  1.515630000000000000e+05  3.893109297207053601e+02
6.687500000000000000e+01  1.570460294117646990e+05  4.020759011390966293e+02
6.700000000000000000e+01  1.551743283582089643e+05  4.026443003608198978e+02
6.712500000000000000e+01  1.611608955223880766e+05  4.103377328779191089e+02
6.725000000000000000e+01  1.530146969696969609e+05  4.028502388827148479e+02
6.737500000000000000e+01  1.653390789473684272e+05  3.902383806948171241e+02
6.750000000000000000e+01  1.606369333333333198e+05  3.872051193417314039e+02
6.762500000000000000e+01  1.643885915492957865e+05  4.025832327282814163e+02
6.775000000000000000e+01  1.612070833333333139e+05  3.958902736823630448e+02
6.787500000000000000e+01  1.620450000000000000e+05  4.025481337678762657e+02
6.800000000000000000e+01  1.640475362318840635e+05  4.079522481332635380e+02
6.812500000000000000e+01  1.600380000000000000e+05  4.000474971800223898e+02
6.825000000000000000e+01  1.627019402985074557e+05  4.122949209054251583e+02
6.837500000000000000e+01  1.536627272727272648e+05  4.037023901771089527e+02
6.850000000000000000e+01  1.661538805970149406e+05  4.166456607165088144e+02
6.862500000000000000e+01  1.564437313432835799e+05  4.042878609824427372e+02
6.875000000000000000e+01  1.548948648648648814e+05  3.827821436101272070e+02
6.887500000000000000e+01  1.511428947368421068e+05  3.731093150027592742e+02
6.900000000000000000e+01  1.511241666666666861e+05  3.833096309097231256e+02
6.912500000000000000e+01  1.492764788732394227e+05  3.836326279858199086e+02
6.925000000000000000e+01  1.467229577464788745e+05  3.803372677175329954e+02
6.937500000000000000e+01  1.477380000000000000e+05  3.843670121121218131e+02
6.950000000000000000e+01  1.446982352941176505e+05  3.859456771929757224e+02
6.962500000000000000e+01  1.447359701492537570e+05  3.888658962040301503e+02
6.975000000000000000e+01  1.399989552238805918e+05  3.824494282376144838e+02
6.987500000000000000e+01  1.535601492537313316e+05  4.005446003034576847e+02
7.000000000000000000e+01  1.406936363636363822e+05  3.862907239579769794e+02
7.012500000000000000e+01  1.500963013698630093e+05  3.793783865979675056e+02
7.025000000000000000e+01  1.424293589743589691e+05  3.575209358798074959e+02
7.037500000000000000e+01  1.458071232876712456e+05  3.739185068004844084e+02
7.050000000000000000e+01  1.451514084507042426e+05  3.782948881708385898e+02
7.062500000000000000e+01  1.465553521126760461e+05  3.801199708299540703e+02
7.075000000000000000e+01  1.476577941176470486e+05  3.898726335807951386e+02
7.087500000000000000e+01  1.427166176470588252e+05  3.832938366643970198e+02
7.100000000000000000e+01  1.496150746268656803e+05  3.953659786487005476e+02
7.112500000000000000e+01  1.469477611940298520e+05  3.918258690990872424e+02
7.125000000000000000e+01  1.544732835820895270e+05  4.017337398978735905e+02
7.137500000000000000e+01  1.458058208955223963e+05  3.903004480417496893e+02
7.150000000000000000e+01  1.631440000000000000e+05  4.039108812597154952e+02
7.162500000000000000e+01  1.624890123456790170e+05  3.747300405114299338e+02
7.175000000000000000e+01  1.744802739726027357e+05  4.090352695728701633e+02
7.187500000000000000e+01  1.780129166666666861e+05  4.160145591513906425e+02
7.200000000000000000e+01  1.889137681159420172e+05  4.377803659522369912e+02
7.212500000000000000e+01  2.003657352941176505e+05  4.541572912061517968e+02
7.225000000000000000e+01  2.020004411764705728e+05  4.560061738867549366e+02
7.237500000000000000e+01  2.142219402985074557e+05  4.730898091018793252e+02
7.250000000000000000e+01  2.124191176470588252e+05  4.676181548596304083e+02
7.262500000000000000e+01  2.250082089552238758e+05  4.848537958870228977e+02
7.275000000000000000e+01  2.108859701492537570e+05  4.693917612496741754e+02
7.287500000000000000e+01  2.290943283582089643e+05  4.892364288964209891e+02
7.300000000000000000e+01  2.137708333333333430e+05  4.220691425715828586e+02
7.312500000000000000e+01  2.736108219178082072e+05  5.122172796431428878e+02
7.325000000000000000e+01  2.298504225352112844e+05  4.760389612629927569e+02
7.337500000000000000e+01  1.132102898550724640e+05  3.388967670154906386e+02
7.350000000000000000e+01  1.926698529411764466e+05  4.453499896955194686e+02
7.362500000000000000e+01  1.785411764705882524e+05  4.287101439705533608e+02
7.375000000000000000e+01  1.736494117647058738e+05  4.227963427051424787e+02
7.387500000000000000e+01  1.667410294117646990e+05  4.143008295135795720e+02
7.400000000000000000e+01  1.668340298507462721e+05  4.174975572285716225e+02
7.412500000000000000e+01  1.534702985074626922e+05  4.004274003090255860e+02
7.425000000000000000e+01  1.643840298507462721e+05  4.144206906022998851e+02
7.437500000000000000e+01  1.536171084337349457e+05  3.599397136663781680e+02
7.450000000000000000e+01  1.566221621621621598e+05  3.849105082257248682e+02
7.462500000000000000e+01  1.548400000000000000e+05  3.934971410315454818e+02
7.475000000000000000e+01  1.538813043478260806e+05  3.951094382306679336e+02
7.487500000000000000e+01  1.579828985507246398e+05  4.003404873056152269e+02
7.500000000000000000e+01  1.499389705882353010e+05  3.928726769723477901e+02
7.512500000000000000e+01  1.629250000000000000e+05  4.095325527533872219e+02
7.525000000000000000e+01  1.510198529411764466e+05  3.942862073694682294e+02
7.537500000000000000e+01  1.621450746268656512e+05  4.115887533071866642e+02
7.550000000000000000e+01  1.485729411764705728e+05  3.910789352087552970e+02
7.562500000000000000e+01  1.677294029850746156e+05  4.186163813810034640e+02
7.575000000000000000e+01  1.584687654320987640e+05  3.700652858692874361e+02
7.587500000000000000e+01  1.685552054794520373e+05  4.020301969092270156e+02
7.600000000000000000e+01  1.704243661971831170e+05  4.099073346639546003e+02
7.612500000000000000e+01  1.801475362318840635e+05  4.275024796306065014e+02
7.625000000000000000e+01  1.937204347826086741e+05  4.433147609945894487e+02
7.637500000000000000e+01  1.916884057971014699e+05  4.409835582362914010e+02
7.650000000000000000e+01  2.145036764705882233e+05  4.699070207301523965e+02
7.662500000000000000e+01  2.057011764705882233e+05  4.601643305088567217e+02
7.675000000000000000e+01  2.321117647058823495e+05  4.888134422403692838e+02
7.687500000000000000e+01  2.110040298507462430e+05  4.695231320029443509e+02
7.700000000000000000e+01  2.465834848484848626e+05  5.113980235351577903e+02
7.712500000000000000e+01  2.232069620253164612e+05  4.447227459686832276e+02
7.725000000000000000e+01  2.452194594594594673e+05  4.816267782658392775e+02
7.737500000000000000e+01  2.322143055555555620e+05  4.751461966374268968e+02
7.750000000000000000e+01  2.307640000000000000e+05  4.803790170271803390e+02
7.762500000000000000e+01  2.348510144927536312e+05  4.881133601776875821e+02
7.775000000000000000e+01  2.199805797101449280e+05  4.724073497033785429e+02
7.787500000000000000e+01  2.144120289855072333e+05  4.663898044505712619e+02
7.800000000000000000e+01  2.005314705882353010e+05  4.543450836284035859e+02
7.812500000000000000e+01  2.040160294117646990e+05  4.582755730617244012e+02
7.825000000000000000e+01  1.778190909090909117e+05  4.342764160182335331e+02
7.837500000000000000e+01  1.917223437500000000e+05  4.579261004535148345e+02
7.850000000000000000e+01  1.686601265822784917e+05  3.865820505167897068e+02
7.862500000000000000e+01  1.732994666666666453e+05  4.021767881030540934e+02
7.875000000000000000e+01  1.642919444444444380e+05  3.996602048252835857e+02
7.887500000000000000e+01  1.621535211267605482e+05  3.998370527058797848e+02
7.900000000000000000e+01  1.682282608695652161e+05  4.131178422760330022e+02
7.912500000000000000e+01  1.608040000000000000e+05  4.010037406309322705e+02
7.925000000000000000e+01  1.678600000000000000e+05  4.156886561160040401e+02
7.937500000000000000e+01  1.593717391304347839e+05  4.020963497473599659e+02
7.950000000000000000e+01  1.643338805970149406e+05  4.143574713415733868e+02
7.962500000000000000e+01  1.578412500000000000e+05  4.154983359623718115e+02
7.975000000000000000e+01  1.660750000000000000e+05  4.261977607285143677e+02
7.987500000000000000e+01  1.562072727272727352e+05  3.768376461690735937e+02
8.000000000000000000e+01  1.602667948717948748e+05  3.792481705756061956e+02
8.012500000000000000e+01  1.566318055555555620e+05  3.902318824338949526e+02
8.025000000000000000e+01  1.562040277777777810e+05  3.896986361358900695e+02
8.037500000000000000e+01  1.619000000000000000e+05  4.023679907746141566e+02
8.050000000000000000e+01  1.446120000000000000e+05  3.802788450597797691e+02
8.062500000000000000e+01  1.615457971014492796e+05  4.048296438475104537e+02
8.075000000000000000e+01  1.472388235294117767e+05  3.893191199551208683e+02
8.087500000000000000e+01  1.722831250000000000e+05  4.340906218392076994e+02
8.100000000000000000e+01  1.496993750000000000e+05  4.046401999384762007e+02
8.112500000000000000e+01  1.676128125000000000e+05  4.281664555659107236e+02
8.125000000000000000e+01  1.582267105263157864e+05  3.817527054473137582e+02
8.137500000000000000e+01  1.649471250000000000e+05  3.799062178683049638e+02
8.150000000000000000e+01  1.711500000000000000e+05  4.051128711312001656e+02
8.162500000000000000e+01  1.715797222222222190e+05  4.084282297138145736e+02
8.175000000000000000e+01  1.806059154929577489e+05  4.219741345204994332e+02
8.187500000000000000e+01  1.691890140845070418e+05  4.084189885695348607e+02
8.200000000000000000e+01  1.854492753623188473e+05  4.337475602464453459e+02
8.212500000000000000e+01  1.694503125000000000e+05  4.305070026107298986e+02
8.225000000000000000e+01  1.911164062500000000e+05  4.572018912208670258e+02
8.237500000000000000e+01  1.736503125000000000e+05  4.358096250622226080e+02
8.250000000000000000e+01  1.917300000000000000e+05  4.579352437845333839e+02
8.262500000000000000e+01  1.770923287671232829e+05  4.120856243931449399e+02
8.275000000000000000e+01  1.831083333333333430e+05  3.906280555436050008e+02
8.287500000000000000e+01  1.819832000000000116e+05  4.121298177354639165e+02
8.300000000000000000e+01  1.746720547945205471e+05  4.092600043649854911e+02
8.312500000000000000e+01  1.862281944444444380e+05  4.255058037714760530e+02
8.325000000000000000e+01  1.714447887323943432e+05  4.111326712852376772e+02
8.337500000000000000e+01  1.825457812500000000e+05  4.468326848409676018e+02
8.350000000000000000e+01  1.651125000000000000e+05  4.249609357046833225e+02
8.362500000000000000e+01  1.852375000000000000e+05  4.501150026659853438e+02
8.375000000000000000e+01  1.594523437500000000e+05  4.176134588067804430e+02
8.387500000000000000e+01  1.850931250000000000e+05  4.499395575727366463e+02
8.400000000000000000e+01  1.581431250000000000e+05  4.158954712049050499e+02
8.412500000000000000e+01  1.767641489361702115e+05  3.628124541238362895e+02
8.425000000000000000e+01  1.710936363636363531e+05  3.943851790083998594e+02
8.437500000000000000e+01  1.645951999999999825e+05  3.919466630380550782e+02
8.450000000000000000e+01  1.849687671232876892e+05  4.211499862758383301e+02
8.462500000000000000e+01  1.582010769230769365e+05  4.127594826682294524e+02
8.475000000000000000e+01  1.888446875000000000e+05  4.544764866889430550e+02
8.487500000000000000e+01  1.655653125000000000e+05  4.255432534383256211e+02
8.500000000000000000e+01  1.822854687500000000e+05  4.465139767636758847e+02
8.512500000000000000e+01  1.659503125000000000e+05  4.260377381135091355e+02
8.525000000000000000e+01  1.849979687500000000e+05  4.498238858934822133e+02
8.537500000000000000e+01  1.828684375000000000e+05  4.472274069370357665e+02
8.550000000000000000e+01  1.752843750000000000e+05  3.575073753609847245e+02
8.562500000000000000e+01  1.810681250000000000e+05  3.980384521311979711e+02
8.575000000000000000e+01  1.771527272727272939e+05  4.013077794963580232e+02
8.587500000000000000e+01  1.897208955223880475e+05  4.452143989063469007e+02
8.600000000000000000e+01  1.647067187500000000e+05  4.244384214851579031e+02
8.612500000000000000e+01  1.944075000000000000e+05  4.611216793049313765e+02
8.625000000000000000e+01  1.702629687500000000e+05  4.315380887828007985e+02
8.637500000000000000e+01  1.869864062500000000e+05  4.522348746347824999e+02
8.650000000000000000e+01  1.694087500000000000e+05  4.304542023403883491e+02
8.662500000000000000e+01  1.873856250000000000e+05  4.527173813139384606e+02
8.675000000000000000e+01  1.684932812500000000e+05  4.292895600491438586e+02
8.687500000000000000e+01  1.787281999999999825e+05  3.537085523421790754e+02
8.700000000000000000e+01  1.739277647058823786e+05  3.784635117918047058e+02
8.712500000000000000e+01  1.640346478873239248e+05  4.021495999425852688e+02
8.725000000000000000e+01  1.775079687500000000e+05  4.406238087306591638e+02
8.737500000000000000e+01  1.567803125000000000e+05  4.140995856033606515e+02
8.750000000000000000e+01  1.752143750000000000e+05  4.377678867347968890e+02
8.762500000000000000e+01  1.597378125000000000e+05  4.179871199234194137e+02
8.775000000000000000e+01  1.740692187500000000e+05  4.363349722493173317e+02
8.787500000000000000e+01  2.321112500000000000e+05  5.038568047446615310e+02
8.800000000000000000e+01  2.259906250000000000e+04  1.572187158368080588e+02
8.812500000000000000e+01  2.090725000000000000e+05  4.781977068901522898e+02
8.825000000000000000e+01  1.675421100917431177e+05  3.280180643160269938e+02
8.837500000000000000e+01  1.666784337349397538e+05  3.749295574230807802e+02
8.850000000000000000e+01  1.536543750000000000e+05  4.099505734308100955e+02
8.862500000000000000e+01  1.749004687500000000e+05  4.373755682423430358e+02
8.875000000000000000e+01  1.562793750000000000e+05  4.134375000000000000e+02
8.887500000000000000e+01  1.723093750000000000e+05  4.341236907912881975e+02
8.900000000000000000e+01  1.548750000000000000e+05  4.115756689237107935e+02
8.912500000000000000e+01  1.727720312500000000e+05  4.347061181760471982e+02
8.925000000000000000e+01  1.537506250000000000e+05  4.100789510493680154e+02
8.937500000000000000e+01  1.742420312500000000e+05  4.365515109121574255e+02
8.950000000000000000e+01  1.532923437500000000e+05  4.094673381071590370e+02
8.962500000000000000e+01  1.664107812500000000e+05  3.016718349400450165e+02
8.975000000000000000e+01  1.767839062500000000e+05  4.397242288763919191e+02
8.987500000000000000e+01  1.558429687500000000e+05  4.128598394979978252e+02
9.000000000000000000e+01  1.787898437500000000e+05  4.422119306413640061e+02
9.012500000000000000e+01  1.565112500000000000e+05  4.137440992781649243e+02
9.025000000000000000e+01  1.764098437500000000e+05  4.392587695215230497e+02
9.037500000000000000e+01  1.530801562500000000e+05  4.091838473088075148e+02
9.050000000000000000e+01  1.768495312500000000e+05  4.398058376200655744e+02
9.062500000000000000e+01  1.583006250000000000e+05  4.161025217344277962e+02
9.075000000000000000e+01  1.709137500000000000e+05  4.323620173679690879e+02
9.087500000000000000e+01  1.637260000000000000e+05  4.046306958202750934e+02
9.100000000000000000e+01  1.620718032786885160e+05  3.049459268045030740e+02
9.112500000000000000e+01  1.753259375000000000e+05  4.379072323456476283e+02
9.125000000000000000e+01  1.559392187500000000e+05  4.129873127685794429e+02
9.137500000000000000e+01  1.745482812500000000e+05  4.369349867167740626e+02
9.150000000000000000e+01  1.497114062500000000e+05  4.046564599582434312e+02
9.162500000000000000e+01  1.774467187500000000e+05  4.405477824627114387e+02
9.175000000000000000e+01  1.502210937500000000e+05  4.053446944133628449e+02
9.187500000000000000e+01  1.775407812500000000e+05  4.406645316929732985e+02
9.200000000000000000e+01  1.509014062500000000e+05  4.062615082504586326e+02
9.212500000000000000e+01  1.693507812500000000e+05  4.303805490402505143e+02
9.225000000000000000e+01  1.571348863636363822e+05  3.535444238104145143e+02
9.237500000000000000e+01  1.637811538461538439e+05  3.320200522389534399e+02
9.250000000000000000e+01  1.721146875000000000e+05  4.338783694229582579e+02
9.262500000000000000e+01  1.507953125000000000e+05  4.061186686756409472e+02
9.275000000000000000e+01  1.677779687500000000e+05  4.283773492148160358e+02
9.287500000000000000e+01  1.576848437500000000e+05  4.152924245053868617e+02
9.300000000000000000e+01  1.664042187500000000e+05  4.266199881133237568e+02
9.312500000000000000e+01  1.517632812500000000e+05  4.074200398448601845e+02
9.325000000000000000e+01  1.758782812500000000e+05  4.385964775476285809e+02
9.337500000000000000e+01  1.550160937500000000e+05  4.117631024497733279e+02
9.350000000000000000e+01  1.653142105263157864e+05  3.902090319849853017e+02
9.362500000000000000e+01  1.590050000000000000e+05  3.684236360628293028e+02
9.375000000000000000e+01  1.626342857142857101e+05  3.408333125426203196e+02
9.387500000000000000e+01  1.737028125000000000e+05  4.358754996233155907e+02
9.400000000000000000e+01  1.557904687500000000e+05  4.127902920313321147e+02
9.412500000000000000e+01  1.680732812500000000e+05  4.287541852474299731e+02
9.425000000000000000e+01  1.592675000000000000e+05  4.173713312207727313e+02
9.437500000000000000e+01  1.696701562500000000e+05  4.307861806029036416e+02
9.450000000000000000e+01  1.587151562500000000e+05  4.166469754461653565e+02
9.462500000000000000e+01  1.683226562500000000e+05  4.290721446020908161e+02
9.475000000000000000e+01  1.574477464788732177e+05  3.939926047336480224e+02
9.487500000000000000e+01  1.677106666666666570e+05  3.956386679225826128e+02
9.500000000000000000e+01  1.636945569620253227e+05  3.808488019757336360e+02
9.512500000000000000e+01  1.582213684210526408e+05  3.414442358643445345e+02
9.525000000000000000e+01  1.724810937500000000e+05  4.343399547463512818e+02
9.537500000000000000e+01  1.535646875000000000e+05  4.098309126373034132e+02
9.550000000000000000e+01  1.741621875000000000e+05  4.364514779195105234e+02
9.562500000000000000e+01  1.588092187500000000e+05  4.167704200249970654e+02
9.575000000000000000e+01  1.686004687500000000e+05  4.294260852525292194e+02
9.587500000000000000e+01  1.571445312500000000e+05  4.145803071235867492e+02
9.600000000000000000e+01  1.708092647058823495e+05  4.193245361399646640e+02
9.612500000000000000e+01  1.584819178082191793e+05  3.898319667265038788e+02
9.625000000000000000e+01  1.678897260273972643e+05  4.012357763777420132e+02
9.637500000000000000e+01  1.645118181818182056e+05  3.867249647321820589e+02
9.650000000000000000e+01  1.673362068965517392e+05  3.669309572494941563e+02
9.662500000000000000e+01  1.760960000000000000e+05  4.196379391809086883e+02
9.675000000000000000e+01  1.627325000000000000e+05  4.218870368653201695e+02
9.687500000000000000e+01  1.809160937500000000e+05  4.448336515362372552e+02
9.700000000000000000e+01  1.617656250000000000e+05  4.206318489412683448e+02
9.712500000000000000e+01  1.835389062500000000e+05  4.480465140037778156e+02
9.725000000000000000e+01  1.689726865671641717e+05  4.201650006327736833e+02
9.737500000000000000e+01  1.852820000000000000e+05  4.304439568631437965e+02
9.750000000000000000e+01  1.745858333333333139e+05  4.119905664597817463e+02
9.762500000000000000e+01  1.854650000000000000e+05  4.246330114869126078e+02
9.775000000000000000e+01  1.853534666666666744e+05  4.159285622422303277e+02
9.787500000000000000e+01  1.879124390243902453e+05  4.005159893234573474e+02
9.800000000000000000e+01  1.939804054054054141e+05  4.283631381038689483e+02
9.812500000000000000e+01  1.798453125000000000e+05  4.435152878389594093e+02
9.825000000000000000e+01  2.030590625000000000e+05  4.712704633322302925e+02
9.837500000000000000e+01  1.849946875000000000e+05  4.498198966843563085e+02
9.850000000000000000e+01  2.112812121212121274e+05  4.733773696195797243e+02
9.862500000000000000e+01  1.827517391304347839e+05  4.305813686864090641e+02
9.875000000000000000e+01  2.117450000000000000e+05  4.601575817043548682e+02
9.887500000000000000e+01  1.882980281690140837e+05  4.308665028349560657e+02
9.900000000000000000e+01  1.965813888888889051e+05  4.371736437081796680e+02
9.912500000000000000e+01  1.999794520547945285e+05  4.379053760902086196e+02
9.925000000000000000e+01  1.938802564102564356e+05  4.171272011109325604e+02
9.937500000000000000e+01  2.082127272727272648e+05  4.350681527308809677e+02
9.950000000000000000e+01  1.797195312500000000e+05  4.433601665741832107e+02
9.962500000000000000e+01  2.022157812500000000e+05  4.702908788634832717e+02
9.975000000000000000e+01  1.832373846153846243e+05  4.442213052604943186e+02
9.987500000000000000e+01  1.995243478260869451e+05  4.499066625878725745e+02
1.000000000000000000e+02  1.814460869565217581e+05  4.290404880552350164e+02
1.001250000000000000e+02  1.874518840579710086e+05  4.360832237426998859e+02
1.002500000000000000e+02  1.776400000000000000e+05  4.214736053420190274e+02
1.003750000000000000e+02  1.876591549295774603e+05  4.301349418966430562e+02
1.005000000000000000e+02  1.798971232876712165e+05  4.153361178898294384e+02
1.006250000000000000e+02  1.750285526315789321e+05  4.015102850522886229e+02
1.007500000000000000e+02  1.820017948717948748e+05  4.041471812541977897e+02
1.008750000000000000e+02  1.669664062500000000e+05  4.273400365469370854e+02
1.010000000000000000e+02  1.842706250000000000e+05  4.489387442555499206e+02
1.011250000000000000e+02  1.616001470588235534e+05  4.078640613740730601e+02
1.012500000000000000e+02  1.787404347826087032e+05  4.258296324428522439e+02
1.013750000000000000e+02  1.642007246376811818e+05  4.081426776074808913e+02
1.015000000000000000e+02  1.748184057971014408e+05  4.211318153275971667e+02
1.016250000000000000e+02  1.682769565217391355e+05  4.131776288632634646e+02
1.017500000000000000e+02  1.707595774647887156e+05  4.103102643042867612e+02
1.018750000000000000e+02  1.688488732394365943e+05  4.080082353276943081e+02
1.020000000000000000e+02  1.656480000000000000e+05  3.931981688665398451e+02
1.021250000000000000e+02  1.769156962025316607e+05  3.959302255077246286e+02
1.022500000000000000e+02  1.643578125000000000e+05  4.239886288827508452e+02
1.023750000000000000e+02  1.739026470588235243e+05  4.231045152156235076e+02
1.025000000000000000e+02  2.206914705882353010e+05  4.766365451722849684e+02
1.026250000000000000e+02  5.210779411764706310e+04  2.316039211619221589e+02
1.027500000000000000e+02  2.091363235294117767e+05  4.639907239035195516e+02
1.028750000000000000e+02  1.733940579710144957e+05  4.194127028750002069e+02
1.030000000000000000e+02  1.653937681159420172e+05  4.096227279437227935e+02
1.031250000000000000e+02  1.674460000000000000e+05  4.092016617757068957e+02
1.032500000000000000e+02  1.696119718309859163e+05  4.089291757985506024e+02
1.033750000000000000e+02  1.687939726027397264e+05  4.023148443726966548e+02
1.035000000000000000e+02  1.706477500000000000e+05  3.864152963457839292e+02
1.036250000000000000e+02  1.625473134328357992e+05  4.120989581978325305e+02
1.037500000000000000e+02  1.710601492537313316e+05  4.227523612255865828e+02
1.038750000000000000e+02  1.640779411764706019e+05  4.109790298491865315e+02
1.040000000000000000e+02  1.726982352941176505e+05  4.216368047925955693e+02
1.041250000000000000e+02  1.646297058823529514e+05  4.116694742816903272e+02
1.042500000000000000e+02  1.763660294117647281e+05  4.260906776390845039e+02
1.043750000000000000e+02  1.692752173913043516e+05  4.144013530521687585e+02
1.045000000000000000e+02  1.761020000000000000e+05  4.196450881399662194e+02
1.046250000000000000e+02  1.742600000000000000e+05  4.174446071037449428e+02
1.047500000000000000e+02  1.716668493150684808e+05  4.057241024248150438e+02
1.048750000000000000e+02  1.798906097560975759e+05  3.918739014910783567e+02
1.050000000000000000e+02  1.712591176470588252e+05  4.198763514643699750e+02
1.051250000000000000e+02  1.855114925373134320e+05  4.402476317685197387e+02
1.052500000000000000e+02  1.699286567164179287e+05  4.213518749685838998e+02
1.053750000000000000e+02  1.812104411764706019e+05  4.319029521022078484e+02
1.055000000000000000e+02  1.771885294117646990e+05  4.270830794440407203e+02
1.056250000000000000e+02  1.837273529411764466e+05  4.348920539811194885e+02
1.057500000000000000e+02  1.765286764705882233e+05  4.262871055600696764e+02
1.058750000000000000e+02  1.809368115942029108e+05  4.284379584327268162e+02
1.060000000000000000e+02  1.830450704225352092e+05  4.248140426576306368e+02
1.061250000000000000e+02  1.768228767123287835e+05  4.117720038429135343e+02
1.062500000000000000e+02  1.852583333333333139e+05  3.929146783265349541e+02
1.063750000000000000e+02  1.732238805970149115e+05  4.254176462701980199e+02
1.065000000000000000e+02  1.918344776119402959e+05  4.476874814947384493e+02
1.066250000000000000e+02  1.746207462686567160e+05  4.271294717691819756e+02
1.067500000000000000e+02  1.835677941176470486e+05  4.347031710096133565e+02
1.068750000000000000e+02  1.754398507462686393e+05  4.281300812268690379e+02
1.070000000000000000e+02  1.846075000000000000e+05  4.359324860032126026e+02
1.071250000000000000e+02  1.766429411764705728e+05  4.264250482784846099e+02
1.072500000000000000e+02  1.758430434782608645e+05  4.223641715199609052e+02
1.073750000000000000e+02  1.742018055555555620e+05  4.115371994271546896e+02
1.075000000000000000e+02  1.739087671232876601e+05  4.083648264580141927e+02
1.076250000000000000e+02  1.791091666666666570e+05  3.863387618255368920e+02
1.077500000000000000e+02  1.652219402985074557e+05  4.154755559901283846e+02
1.078750000000000000e+02  1.752643283582089643e+05  4.279158618839223323e+02
1.080000000000000000e+02  1.662395522388059762e+05  4.167530615116696708e+02
1.081250000000000000e+02  1.747471641791044676e+05  4.272840554803339046e+02
1.082500000000000000e+02  1.672722058823529514e+05  4.149602109161776298e+02
1.083750000000000000e+02  1.699171641791044967e+05  4.213376263888671929e+02
1.085000000000000000e+02  1.655314705882352719e+05  4.127954012008796099e+02
1.086250000000000000e+02  1.665120000000000000e+05  4.080588192895725115e+02
1.087500000000000000e+02  1.661245833333333430e+05  4.018830819704583064e+02
1.088750000000000000e+02  1.679875342465753492e+05  4.013526341619933646e+02
1.090000000000000000e+02  1.658087341772151703e+05  3.833003150917452331e+02
1.091250000000000000e+02  1.666855555555555620e+05  4.025610528038795337e+02
1.092500000000000000e+02  1.691011940298507398e+05  4.203247426513441951e+02
1.093750000000000000e+02  1.637777272727272648e+05  4.167776987048863475e+02
1.095000000000000000e+02  1.728825000000000000e+05  4.218616827963458036e+02
1.096250000000000000e+02  1.713819402985074557e+05  4.231498062398572415e+02
1.097500000000000000e+02  1.688295522388059762e+05  4.199870050711131739e+02
1.098750000000000000e+02  1.649311594202898559e+05  4.090494665423179868e+02
1.100000000000000000e+02  1.717819718309859163e+05  4.115367631682498768e+02
1.101250000000000000e+02  1.730054929577464936e+05  4.129997528738177834e+02
1.102500000000000000e+02  1.725164383561643772e+05  4.067268391825040226e+02
1.103750000000000000e+02  1.775000000000000000e+05  4.017009290051946095e+02
1.105000000000000000e+02  1.716572602739725844e+05  4.057127707103979901e+02
1.106250000000000000e+02  1.792323880597014795e+05  4.327328493058330423e+02
1.107500000000000000e+02  1.718353731343283725e+05  4.237092096231181699e+02
1.108750000000000000e+02  1.822350746268656512e+05  4.363425879830778626e+02
1.110000000000000000e+02  1.758514925373134320e+05  4.286320566224104596e+02
1.111250000000000000e+02  1.816572058823529514e+05  4.324350412245667599e+02
1.112500000000000000e+02  1.783060000000000000e+05  4.222629512519420700e+02
1.113750000000000000e+02  1.804550000000000000e+05  4.247999529190180965e+02
1.115000000000000000e+02  1.841865277777777810e+05  4.231669119147977085e+02
1.116250000000000000e+02  1.832126760563380376e+05  4.250084891272084064e+02
1.117500000000000000e+02  1.849502666666666628e+05  4.154759305770779747e+02
1.118750000000000000e+02  1.837803947368421068e+05  4.114260762336122639e+02
1.120000000000000000e+02  1.915539393939393922e+05  4.507363631372314217e+02
1.121250000000000000e+02  1.914301492537313316e+05  4.472154385461750508e+02
1.122500000000000000e+02  1.716441791044776037e+05  4.234734222627047870e+02
1.123750000000000000e+02  1.821297058823529514e+05  4.329970692022247931e+02
1.125000000000000000e+02  1.943910144927536021e+05  4.440813839515891459e+02
1.126250000000000000e+02  1.854660000000000000e+05  4.306576366442374137e+02
1.127500000000000000e+02  1.856876811594202882e+05  4.340262745195559546e+02
1.128750000000000000e+02  1.880446478873239248e+05  4.305765108780282731e+02
1.130000000000000000e+02  1.892770833333333430e+05  4.289748087872690689e+02
1.131250000000000000e+02  1.923439189189189347e+05  4.265524004488863170e+02
1.132500000000000000e+02  1.829275000000000000e+05  4.104702854813706381e+02
1.133750000000000000e+02  1.948476119402984914e+05  4.511896850305022326e+02
1.135000000000000000e+02  1.799010606060606078e+05  4.368113496559425357e+02
1.136250000000000000e+02  1.899377941176470486e+05  4.421811843882433095e+02
1.137500000000000000e+02  1.872794202898550720e+05  4.358825699506800220e+02
1.138750000000000000e+02  1.916610144927536312e+05  4.409520499498414097e+02
1.140000000000000000e+02  1.816794202898550720e+05  4.293162649685190786e+02
1.141250000000000000e+02  1.888430000000000000e+05  4.345606977166710863e+02
1.142500000000000000e+02  1.838920000000000000e+05  4.288263051632910106e+02
1.143750000000000000e+02  1.861516901408450794e+05  4.284038227538696333e+02
1.145000000000000000e+02  1.868884931506849534e+05  4.233298289951880520e+02
1.146250000000000000e+02  1.839411538461538439e+05  4.062947138190669989e+02
1.147500000000000000e+02  1.905643939393939509e+05  4.495706297656042807e+02
1.148750000000000000e+02  1.804829850746268639e+05  4.342399253460413320e+02
1.150000000000000000e+02  1.874305797101449280e+05  4.360584420961661181e+02
1.151250000000000000e+02  1.840076811594202882e+05  4.320583978436688426e+02
1.152500000000000000e+02  1.856657352941176505e+05  4.371801599049674110e+02
1.153750000000000000e+02  1.839407246376811527e+05  4.319797822133876366e+02
1.155000000000000000e+02  1.874336231884057925e+05  4.360619824176110342e+02
1.156250000000000000e+02  1.833150000000000000e+05  4.281530100326284014e+02
1.157500000000000000e+02  1.851145070422535355e+05  4.272086849119451131e+02
1.158750000000000000e+02  1.877645945945945859e+05  4.214441327731836395e+02
1.160000000000000000e+02  1.839854545454545587e+05  4.089737205887823279e+02
1.161250000000000000e+02  1.908085074626865680e+05  4.464887142761182872e+02
1.162500000000000000e+02  1.797394117647059029e+05  4.301463298133591593e+02
1.163750000000000000e+02  1.905914705882353010e+05  4.429414205920739391e+02
1.165000000000000000e+02  1.830314705882353010e+05  4.340676780583277719e+02
1.166250000000000000e+02  1.870156521739130549e+05  4.355755088897324754e+02
1.167500000000000000e+02  1.842998550724637753e+05  4.324012806003450464e+02
1.168750000000000000e+02  1.884930000000000000e+05  4.341578054118110686e+02
1.170000000000000000e+02  2.075337681159420172e+05  4.588480182868161137e+02
1.171250000000000000e+02  2.121285915492957865e+05  4.573192155461613879e+02
1.172500000000000000e+02  1.607754166666666570e+05  3.953598776689035503e+02
1.173750000000000000e+02  2.088153164556962147e+05  4.301467537607020404e+02
1.175000000000000000e+02  1.179695588235294126e+05  3.484813506202359008e+02
1.176250000000000000e+02  1.607388059701492602e+05  4.098000316483173719e+02
1.177500000000000000e+02  2.145520289855072624e+05  4.665420438513010595e+02
1.178750000000000000e+02  1.879654411764706019e+05  4.398793431217137027e+02
1.180000000000000000e+02  1.916476470588235243e+05  4.441670210186181862e+02
1.181250000000000000e+02  1.899749275362318731e+05  4.390081859778898661e+02
1.182500000000000000e+02  1.931807246376811527e+05  4.426967870728271919e+02
1.183750000000000000e+02  1.910580000000000000e+05  4.371018188019812101e+02
1.185000000000000000e+02  1.911360000000000000e+05  4.371910337598428100e+02
1.186250000000000000e+02  1.895436986301369907e+05  4.263264377952006043e+02
1.187500000000000000e+02  1.903203750000000000e+05  4.080812763715090909e+02
1.188750000000000000e+02  1.974334328358208877e+05  4.541736846170404078e+02
1.190000000000000000e+02  1.888260294117646990e+05  4.408851734399440829e+02
1.191250000000000000e+02  1.937517647058823786e+05  4.465986408630922142e+02
1.192500000000000000e+02  1.867054411764705728e+05  4.384025292829192608e+02
1.193750000000000000e+02  1.965244927536231698e+05  4.465116726447624842e+02
1.195000000000000000e+02  1.910372058823529514e+05  4.434590705260565073e+02
1.196250000000000000e+02  1.936550000000000000e+05  4.464871054063237921e+02
1.197500000000000000e+02  1.875540000000000000e+05  4.330750512324624992e+02
1.198750000000000000e+02  1.918246478873239248e+05  4.348826189712312953e+02
1.200000000000000000e+02  1.900471232876712456e+05  4.268922200463755416e+02
1.201250000000000000e+02  1.900500000000000000e+05  4.129863100729760390e+02
1.202500000000000000e+02  1.932080000000000000e+05  4.395543197376178455e+02
1.203750000000000000e+02  1.834386567164178996e+05  4.377811415681075573e+02
1.205000000000000000e+02  1.924526470588235243e+05  4.450988868006095345e+02
1.206250000000000000e+02  1.829336764705882524e+05  4.339517009065907018e+02
1.207500000000000000e+02  1.889917647058823495e+05  4.410786165988567404e+02
1.208750000000000000e+02  1.835613043478260806e+05  4.315340231157796325e+02
1.210000000000000000e+02  1.918988235294117476e+05  4.444579919119403826e+02
1.211250000000000000e+02  1.851746478873239539e+05  4.272780760290751232e+02
1.212500000000000000e+02  1.893766197183098702e+05  4.320987657749662390e+02
1.213750000000000000e+02  1.839950000000000000e+05  4.229468380042316653e+02
1.215000000000000000e+02  1.852181818181817944e+05  4.103415227456955563e+02
1.216250000000000000e+02  1.915959154929577489e+05  4.346232638411457287e+02
1.217500000000000000e+02  1.825569117647059029e+05  4.335045936307502643e+02
1.218750000000000000e+02  1.881317910447761242e+05  4.433459175227561104e+02
1.220000000000000000e+02  1.820967647058823495e+05  4.329579100826247213e+02
1.221250000000000000e+02  1.880848529411764757e+05  4.400190454748781121e+02
1.222500000000000000e+02  1.830572058823529514e+05  4.340981932114910364e+02
1.223750000000000000e+02  1.867945070422535355e+05  4.291428648974169278e+02
1.225000000000000000e+02  1.831828985507246398e+05  4.310889968062300568e+02
1.226250000000000000e+02  1.858046478873239539e+05  4.280043002303498838e+02
1.227500000000000000e+02  1.861760273972602736e+05  4.225221388024475573e+02
1.228750000000000000e+02  1.837462162162162131e+05  4.169100482269969916e+02
1.230000000000000000e+02  1.881344594594594673e+05  4.218590158078970944e+02
1.231250000000000000e+02  1.804871641791044676e+05  4.342449527548872084e+02
1.232500000000000000e+02  1.865677611940298229e+05  4.414991976731116665e+02
1.233750000000000000e+02  1.815450000000000000e+05  4.323014675241450391e+02
1.235000000000000000e+02  1.859508823529411748e+05  4.375157436613648088e+02
1.236250000000000000e+02  1.807990000000000000e+05  4.252046566066745186e+02
1.237500000000000000e+02  1.841730434782608645e+05  4.322524933663472666e+02
1.238750000000000000e+02  1.800288405797101441e+05  4.273616199558637732e+02
1.240000000000000000e+02  1.830811111111111240e+05  4.218951584118476035e+02
1.241250000000000000e+02  1.846619718309859163e+05  4.266861832638783198e+02
1.242500000000000000e+02  1.800246575342465949e+05  4.154833136684899273e+02
1.243750000000000000e+02  1.813690666666666802e+05  4.114338288905708509e+02
1.245000000000000000e+02  1.709055223880597041e+05  4.225612481820084554e+02
1.246250000000000000e+02  1.864655882352941262e+05  4.381208397716485479e+02
1.247500000000000000e+02  1.744842647058823495e+05  4.238114614357316441e+02
1.248750000000000000e+02  1.811460000000000000e+05  4.256124998164410158e+02
1.250000000000000000e+02  1.756166176470588252e+05  4.251844450162035400e+02
1.251250000000000000e+02  1.765488732394366234e+05  4.172077053351169980e+02
1.252500000000000000e+02  1.744065217391304323e+05  4.206354151625525333e+02
1.253750000000000000e+02  1.777410000000000000e+05  4.215934060205401011e+02
1.255000000000000000e+02  1.764295774647887447e+05  4.170667258827106707e+02
1.256250000000000000e+02  1.756002739726027357e+05  4.103459812856589224e+02
1.257500000000000000e+02  1.811954666666666744e+05  4.112368768591757657e+02
1.258750000000000000e+02  1.720537313432835799e+05  4.239783364296336003e+02
1.260000000000000000e+02  1.768960869565217290e+05  4.236269566041432881e+02
1.261250000000000000e+02  1.697736764705882233e+05  4.180514560388395466e+02
1.262500000000000000e+02  1.763370000000000000e+05  4.199249933023753556e+02
1.263750000000000000e+02  1.704788235294117476e+05  4.189187350482125112e+02
1.265000000000000000e+02  1.762120000000000000e+05  4.197761308126034692e+02
1.266250000000000000e+02  1.739286956521739194e+05  4.200588070571350272e+02
1.267500000000000000e+02  1.730300000000000000e+05  4.159687488261587873e+02
1.268750000000000000e+02  1.728792957746478787e+05  4.128490960579301827e+02
1.270000000000000000e+02  1.722048611111110949e+05  4.091715932795355002e+02
1.271250000000000000e+02  1.749576315789473592e+05  4.014289314195096949e+02
1.272500000000000000e+02  1.702510000000000000e+05  4.126148325012080704e+02
1.273750000000000000e+02  1.769516417910447635e+05  4.299707543920108037e+02
1.275000000000000000e+02  1.705200000000000000e+05  4.189693235997679608e+02
1.276250000000000000e+02  1.761130000000000000e+05  4.196581942486051275e+02
1.277500000000000000e+02  1.708535294117647281e+05  4.193788659648851649e+02
1.278750000000000000e+02  1.749878260869565420e+05  4.213358298762308323e+02
1.280000000000000000e+02  1.703769565217391355e+05  4.157477453645147421e+02
1.281250000000000000e+02  1.729364788732394227e+05  4.129173692383099024e+02
1.282500000000000000e+02  1.728100000000000000e+05  4.157042217731255960e+02
1.283750000000000000e+02  1.716371232876712456e+05  4.056889730798569076e+02
1.285000000000000000e+02  1.776811842105263204e+05  4.045413727904340817e+02
1.286250000000000000e+02  1.674268115942028817e+05  4.121326086644365887e+02
1.287500000000000000e+02  1.788819117647059029e+05  4.291190329776434282e+02
1.288750000000000000e+02  1.698117647058823495e+05  4.180983477289792063e+02
1.290000000000000000e+02  1.750060869565217290e+05  4.213578135710086485e+02
1.291250000000000000e+02  1.728680882352941262e+05  4.218440988939234444e+02
1.292500000000000000e+02  1.756750000000000000e+05  4.191360161093293755e+02
1.293750000000000000e+02  1.726382608695652161e+05  4.184976280103431350e+02
1.295000000000000000e+02  1.745181159420289914e+05  4.207699656571982700e+02
1.296250000000000000e+02  1.752586111111111240e+05  4.127836192946913911e+02
1.297500000000000000e+02  1.724450000000000000e+05  4.094567878434928616e+02
1.298750000000000000e+02  1.771547435897435935e+05  3.987292644119413580e+02
1.300000000000000000e+02  1.705560294117646990e+05  4.190135835721713988e+02
1.301250000000000000e+02  1.796951470588235243e+05  4.300933601474295642e+02
1.302500000000000000e+02  1.724645588235294272e+05  4.213514516976900950e+02
1.303750000000000000e+02  1.768392753623188182e+05  4.235589255476126596e+02
1.305000000000000000e+02  1.727894202898550720e+05  4.186808029833819660e+02
1.306250000000000000e+02  1.776476470588235534e+05  4.276360343267055555e+02
1.307500000000000000e+02  1.745430000000000000e+05  4.177834367229031045e+02
1.308750000000000000e+02  1.742800000000000000e+05  4.174685616905780989e+02
1.310000000000000000e+02  1.722962500000000000e+05  4.092801522863716173e+02
1.311250000000000000e+02  1.707230985915493220e+05  4.102664352675725468e+02
1.312500000000000000e+02  1.710755696202531690e+05  3.893404008894803496e+02
1.313750000000000000e+02  1.624177611940298520e+05  4.119347014545136290e+02
1.315000000000000000e+02  1.739294117647058738e+05  4.231370731795572055e+02
1.316250000000000000e+02  1.638782352941176505e+05  4.107288441186027512e+02
1.317500000000000000e+02  1.694175000000000000e+05  4.445826694777923649e+02
1.318750000000000000e+02  1.746453333333333139e+05  5.212202207498462485e+02
1.320000000000000000e+02  4.464880000000000291e+04  3.535769223238417567e+02
