# DMC at SINQ, PSI: Sample name = Unknown, wavelength = 2.450 AA, T = 0.0 K
# Filelist='dmc:2022:579'
#   0.000   0.125 132.000     140., sample="Unknown"
0.000000000000000000e+00  1.981000000000000000e+04  1.177582268888250610e+03
1.250000000000000000e-01  1.813000000000000000e+04  7.965864673718729136e+02
2.500000000000000000e-01  1.710800000000000000e+04  4.893996322025589620e+02
3.750000000000000000e-01  1.670200000000000000e+04  4.835576490967752079e+02
5.000000000000000000e-01  1.723555555555555475e+04  3.661342936514610642e+02
6.250000000000000000e-01  1.778000000000000000e+04  3.718721405118819234e+02
7.500000000000000000e-01  1.724692307692307804e+04  3.047425919317450962e+02
8.750000000000000000e-01  1.698500000000000000e+04  2.914189424179560888e+02
1.000000000000000000e+00  1.723000000000000000e+04  2.935132024287834156e+02
1.125000000000000000e+00  1.683850000000000000e+04  2.427648038740377103e+02
1.250000000000000000e+00  1.723555555555555475e+04  2.588960418658948015e+02
1.375000000000000000e+00  1.692833333333333576e+04  2.222032978053106262e+02
1.500000000000000000e+00  1.680333333333333212e+04  2.366666666666666572e+02
1.625000000000000000e+00  1.645259259259259125e+04  2.065305538764163771e+02
1.750000000000000000e+00  1.712375000000000000e+04  2.234821488023894460e+02
1.875000000000000000e+00  1.666903225806451519e+04  1.940096653781601788e+02
2.000000000000000000e+00  1.734000000000000000e+04  2.082066281365701172e+02
2.125000000000000000e+00  1.622800000000000000e+04  1.801554883982167325e+02
2.250000000000000000e+00  1.639600000000000000e+04  1.810856151106431753e+02
2.375000000000000000e+00  1.652945945945946005e+04  1.768387693033037351e+02
2.500000000000000000e+00  1.686650000000000000e+04  1.718033032278483176e+02
2.625000000000000000e+00  1.679447368421052670e+04  1.758897051155950066e+02
2.750000000000000000e+00  1.661863636363636397e+04  1.625999374828338659e+02
2.875000000000000000e+00  1.662666666666666788e+04  1.664665465224503293e+02
3.000000000000000000e+00  1.648574468085106491e+04  1.566947247316078347e+02
3.125000000000000000e+00  1.657250000000000000e+04  1.554613429977583223e+02
3.250000000000000000e+00  1.637854166666666606e+04  1.545489348520037254e+02
3.375000000000000000e+00  1.645942307692307804e+04  1.488519925310822885e+02
3.500000000000000000e+00  1.643625000000000000e+04  1.433363614021229466e+02
3.625000000000000000e+00  1.645122807017543892e+04  1.421381811559466826e+02
3.750000000000000000e+00  1.627561403508771764e+04  1.413774953217132406e+02
3.875000000000000000e+00  1.663016393442622939e+04  1.381441083754561419e+02
4.000000000000000000e+00  1.657483333333333212e+04  1.390586407079961191e+02
4.125000000000000000e+00  1.650250000000000000e+04  1.343488346618607636e+02
4.250000000000000000e+00  1.674312500000000000e+04  1.353247684969385034e+02
4.375000000000000000e+00  1.606553846153846098e+04  1.315345928355960723e+02
4.500000000000000000e+00  1.675138888888888687e+04  1.276168975130809002e+02
4.625000000000000000e+00  1.655500000000000000e+04  1.305446734444032586e+02
4.750000000000000000e+00  1.656181818181818380e+04  1.227037014401254140e+02
4.875000000000000000e+00  1.646873239436619770e+04  1.274236179716333339e+02
5.000000000000000000e+00  1.662204819277108618e+04  1.184001472185453281e+02
5.125000000000000000e+00  1.670973684210526335e+04  1.240586437593638323e+02
5.250000000000000000e+00  1.632536585365853716e+04  1.180520559916465402e+02
5.375000000000000000e+00  1.654064102564102723e+04  1.218366325167072830e+02
5.500000000000000000e+00  1.652164705882353155e+04  1.166450268281379437e+02
5.625000000000000000e+00  1.662500000000000000e+04  1.137126006894379060e+02
5.750000000000000000e+00  1.643860465116279011e+04  1.156730720599382352e+02
5.875000000000000000e+00  1.667129032258064399e+04  1.120191190757254844e+02
6.000000000000000000e+00  1.659402298850574880e+04  1.155487462042424625e+02
6.125000000000000000e+00  1.661237113402061732e+04  1.094911369280092686e+02
6.250000000000000000e+00  1.648053191489361780e+04  1.107823836734324203e+02
6.375000000000000000e+00  1.670504950495049343e+04  1.075999864434887314e+02
6.500000000000000000e+00  1.670428571428571377e+04  1.092320129497814492e+02
6.625000000000000000e+00  1.653733333333333212e+04  1.049994708981378153e+02
6.750000000000000000e+00  1.676843137254902103e+04  1.072741675352308590e+02
6.875000000000000000e+00  1.680513761467890072e+04  1.038859480933859487e+02
7.000000000000000000e+00  1.652990566037735698e+04  1.044795455392980585e+02
7.125000000000000000e+00  1.681862385321100737e+04  1.039276243276656118e+02
7.250000000000000000e+00  1.697811881188118787e+04  1.084758638496945053e+02
7.375000000000000000e+00  1.694291666666666424e+04  1.111494942383655058e+02
7.500000000000000000e+00  1.752510869565217217e+04  1.154743340905172460e+02
7.625000000000000000e+00  1.733139784946236614e+04  1.142153149374548349e+02
7.750000000000000000e+00  1.768454545454545223e+04  1.186054470339187361e+02
7.875000000000000000e+00  1.794333333333333212e+04  1.181352018914172959e+02
8.000000000000000000e+00  1.833918604651162968e+04  1.221771028321712578e+02
8.125000000000000000e+00  1.842045977011494324e+04  1.217417741991217639e+02
8.250000000000000000e+00  1.847275862068965216e+04  1.219144746127182657e+02
8.375000000000000000e+00  1.877050000000000000e+04  1.281568862761576213e+02
8.500000000000000000e+00  1.903011764705882524e+04  1.251873060325826401e+02
8.625000000000000000e+00  1.902687500000000000e+04  1.290291270411452444e+02
8.750000000000000000e+00  1.886457831325301231e+04  1.261343938996428165e+02
8.875000000000000000e+00  1.987545454545454413e+04  1.344194741892792706e+02
9.000000000000000000e+00  2.022146341463414501e+04  1.313857863931677343e+02
9.125000000000000000e+00  2.117337209302325573e+04  1.312788637813284822e+02
9.250000000000000000e+00  2.129105263157894660e+04  1.400363526210307157e+02
9.375000000000000000e+00  2.178609195402298792e+04  1.323972790628149028e+02
9.500000000000000000e+00  2.192971830985915585e+04  1.470402973265808555e+02
9.625000000000000000e+00  2.134916666666666788e+04  1.333828033227005676e+02
9.750000000000000000e+00  2.169810810810810653e+04  1.432663163467314007e+02
9.875000000000000000e+00  2.122296296296295986e+04  1.354283286104310946e+02
1.000000000000000000e+01  2.174307692307692560e+04  1.396890036884768165e+02
1.012500000000000000e+01  2.149644736842105340e+04  1.407101965682748528e+02
1.025000000000000000e+01  2.149090909090909190e+04  1.397754988638732243e+02
1.037500000000000000e+01  2.153200000000000000e+04  1.417622422697007494e+02
1.050000000000000000e+01  2.133036585365853898e+04  1.349401678502906066e+02
1.062500000000000000e+01  2.143120000000000073e+04  1.414300298145105330e+02
1.075000000000000000e+01  2.171772151898734228e+04  1.387211256911749331e+02
1.087500000000000000e+01  2.110546666666666715e+04  1.403511152629559717e+02
1.100000000000000000e+01  2.091818181818181984e+04  1.379004312017182770e+02
1.112500000000000000e+01  2.109026315789473665e+04  1.393744681865063342e+02
1.125000000000000000e+01  2.088932432432432324e+04  1.405708777028322913e+02
1.137500000000000000e+01  2.104162162162161985e+04  1.410823754729892983e+02
1.150000000000000000e+01  2.063434210526316019e+04  1.378597660557746281e+02
1.162500000000000000e+01  2.101135135135135351e+04  1.409808590896533076e+02
1.175000000000000000e+01  2.067520000000000073e+04  1.389131143317049464e+02
1.187500000000000000e+01  2.089679487179487478e+04  1.369435425980469176e+02
1.200000000000000000e+01  2.069794520547944921e+04  1.408806044762125396e+02
1.212500000000000000e+01  2.077250000000000000e+04  1.348181645773298669e+02
1.225000000000000000e+01  2.085300000000000000e+04  1.444056785587048921e+02
1.237500000000000000e+01  2.103189873417721537e+04  1.365132214764509513e+02
1.250000000000000000e+01  2.055100000000000000e+04  1.433561997264157526e+02
1.262500000000000000e+01  2.066773333333333358e+04  1.388880284417791131e+02
1.275000000000000000e+01  2.088041666666666788e+04  1.424794900769671813e+02
1.287500000000000000e+01  2.093636363636363603e+04  1.379603488370468938e+02
1.300000000000000000e+01  2.126900000000000000e+04  1.458389522727038923e+02
1.312500000000000000e+01  2.061266666666666424e+04  1.387028798867885655e+02
1.325000000000000000e+01  2.131546666666666715e+04  1.410476357673376810e+02
1.337500000000000000e+01  2.117310810810810653e+04  1.415224921273650409e+02
1.350000000000000000e+01  2.119181818181818016e+04  1.387994569737156780e+02
1.362500000000000000e+01  2.133173913043478387e+04  1.471084456107340372e+02
1.375000000000000000e+01  2.114448717948717967e+04  1.377527561529892068e+02
1.387500000000000000e+01  2.115000000000000000e+04  1.454303957224898625e+02
1.400000000000000000e+01  2.110594594594594309e+04  1.412978556203944720e+02
1.412500000000000000e+01  2.103746478873239539e+04  1.440179241197578506e+02
1.425000000000000000e+01  2.061131578947368689e+04  1.377828242133229253e+02
1.437500000000000000e+01  2.103043478260869233e+04  1.460658197269353309e+02
1.450000000000000000e+01  2.474216216216216344e+04  1.529861039154683624e+02
1.462500000000000000e+01  1.876460526315789684e+04  1.314655432353730760e+02
1.475000000000000000e+01  2.033733333333333576e+04  1.377734049485281389e+02
1.487500000000000000e+01  2.078232876712328653e+04  1.411674908101191477e+02
1.500000000000000000e+01  2.087676056338028502e+04  1.434667964450517559e+02
1.512500000000000000e+01  2.089783783783783656e+04  1.405995198488902815e+02
1.525000000000000000e+01  2.186000000000000000e+04  1.478512766262097671e+02
1.537500000000000000e+01  2.190810810810810653e+04  1.439579315224082166e+02
1.550000000000000000e+01  2.378867647058823422e+04  1.564875184339170744e+02
1.562500000000000000e+01  2.418039473684210316e+04  1.492361089180033389e+02
1.575000000000000000e+01  2.478514705882352791e+04  1.597314057169670605e+02
1.587500000000000000e+01  2.408559999999999854e+04  1.499329627978228530e+02
1.600000000000000000e+01  2.352189189189189347e+04  1.491658079994003003e+02
1.612500000000000000e+01  2.309723684210526335e+04  1.458553076703870488e+02
1.625000000000000000e+01  2.295507042253521286e+04  1.504385574628844608e+02
1.637500000000000000e+01  2.253041095890411088e+04  1.469847055282389761e+02
1.650000000000000000e+01  2.195633802816901516e+04  1.471295137985209749e+02
1.662500000000000000e+01  2.185246575342465803e+04  1.447564133833547544e+02
1.675000000000000000e+01  2.142394366197183263e+04  1.453347789642656096e+02
1.687500000000000000e+01  2.166791666666666788e+04  1.451414141194462673e+02
1.700000000000000000e+01  2.053760563380281747e+04  1.422966745311445891e+02
1.712500000000000000e+01  2.126300000000000000e+04  1.458183801857639992e+02
1.725000000000000000e+01  2.081333333333333212e+04  1.422504312302257574e+02
1.737500000000000000e+01  2.114095890410958964e+04  1.423803089398379882e+02
1.750000000000000000e+01  2.103639999999999782e+04  1.401212808010736808e+02
1.762500000000000000e+01  2.111500000000000000e+04  1.453100134195850899e+02
1.775000000000000000e+01  2.084786666666666497e+04  1.394919671124071954e+02
1.787500000000000000e+01  2.047700000000000000e+04  1.430978686074674044e+02
1.800000000000000000e+01  2.093383561643835492e+04  1.416811243675888363e+02
1.812500000000000000e+01  2.080500000000000000e+04  1.442393843580871646e+02
1.825000000000000000e+01  2.130430555555555475e+04  1.439184466638083961e+02
1.837500000000000000e+01  2.098300000000000000e+04  1.448551000137723861e+02
1.850000000000000000e+01  2.160300000000000000e+04  1.469795904198946914e+02
1.862500000000000000e+01  2.110352112676056277e+04  1.442438505962537079e+02
1.875000000000000000e+01  2.121090909090909190e+04  1.388619624954910989e+02
1.887500000000000000e+01  2.114100000000000000e+04  1.453994497926316001e+02
1.900000000000000000e+01  2.081800000000000000e+04  1.393920131619216249e+02
1.912500000000000000e+01  2.083200000000000000e+04  1.443329484213497267e+02
1.925000000000000000e+01  2.060916666666666788e+04  1.415510148844395246e+02
1.937500000000000000e+01  2.097600000000000000e+04  1.448309359218533814e+02
1.950000000000000000e+01  2.065287671232876892e+04  1.407271414983188436e+02
1.962500000000000000e+01  2.088536231884057997e+04  1.455611511676744101e+02
1.975000000000000000e+01  2.028915492957746756e+04  1.414333489106811044e+02
1.987500000000000000e+01  2.086200000000000000e+04  1.444368374065286673e+02
2.000000000000000000e+01  2.033900000000000000e+04  1.426148659852821936e+02
2.012500000000000000e+01  2.105320000000000073e+04  1.401772211642581283e+02
2.025000000000000000e+01  2.059676056338028502e+04  1.425014573405399858e+02
2.037500000000000000e+01  2.114093333333333430e+04  1.404689922288110608e+02
2.050000000000000000e+01  2.107000000000000000e+04  1.451550894732940549e+02
2.062500000000000000e+01  2.104633802816901516e+04  1.440482930547863702e+02
2.075000000000000000e+01  2.226295774647887447e+04  1.481532819795673674e+02
2.087500000000000000e+01  2.350930555555555475e+04  1.511829001247279223e+02
2.100000000000000000e+01  2.590507246376811599e+04  1.621126407673884842e+02
2.112500000000000000e+01  2.717183098591549424e+04  1.636738498998647060e+02
2.125000000000000000e+01  2.837333333333333212e+04  1.696600750406586826e+02
2.137500000000000000e+01  2.692436619718309885e+04  1.629268233651864080e+02
2.150000000000000000e+01  2.667388888888888687e+04  1.610370998585859752e+02
2.162500000000000000e+01  2.492184210526316019e+04  1.515068587716333468e+02
2.175000000000000000e+01  2.312130434782608427e+04  1.531548096377840977e+02
2.187500000000000000e+01  2.258256756756757022e+04  1.461570670189811381e+02
2.200000000000000000e+01  2.124753623188405982e+04  1.468178175140623978e+02
2.212500000000000000e+01  2.083083333333333212e+04  1.423102212565003128e+02
2.225000000000000000e+01  2.078600000000000000e+04  1.441735065814798133e+02
2.237500000000000000e+01  2.076929577464788963e+04  1.430970666437548289e+02
2.250000000000000000e+01  2.013666666666666788e+04  1.429283121549363784e+02
2.262500000000000000e+01  2.034436619718309885e+04  1.416256538491832941e+02
2.275000000000000000e+01  2.012550724637681196e+04  1.428887023681027131e+02
2.287500000000000000e+01  2.044191780821917928e+04  1.400065676823154490e+02
2.300000000000000000e+01  2.016194444444444525e+04  1.400067513804200985e+02
2.312500000000000000e+01  2.035465753424657669e+04  1.397074255681013710e+02
2.325000000000000000e+01  2.018527777777777737e+04  1.400877425661644224e+02
2.337500000000000000e+01  2.039169014084507216e+04  1.417902790654313208e+02
2.350000000000000000e+01  2.033400000000000000e+04  1.425973351784667784e+02
2.362500000000000000e+01  1.997800000000000000e+04  1.413435530896262833e+02
2.375000000000000000e+01  2.040845070422534991e+04  1.418485380134748084e+02
2.387500000000000000e+01  2.007558823529411893e+04  1.437569014440794319e+02
2.400000000000000000e+01  2.016486111111111313e+04  1.400168778406622039e+02
2.412500000000000000e+01  1.962000000000000000e+04  1.400714103591450339e+02
2.425000000000000000e+01  2.059623188405796827e+04  1.445500881989343043e+02
2.437500000000000000e+01  1.967840000000000146e+04  1.355230853643270166e+02
2.450000000000000000e+01  1.994136986301369689e+04  1.382818191682438567e+02
2.462500000000000000e+01  2.029500000000000000e+04  1.424605208470051991e+02
2.475000000000000000e+01  1.975899999999999636e+04  1.405667101414840658e+02
2.487500000000000000e+01  1.991943661971830807e+04  1.401387925392900229e+02
2.500000000000000000e+01  2.014028169014084415e+04  1.409135045013184424e+02
2.512500000000000000e+01  2.029086956521739194e+04  1.434745278390082035e+02
2.525000000000000000e+01  1.951816901408450576e+04  1.387200966880925250e+02
2.537500000000000000e+01  2.025900000000000000e+04  1.423341139713174925e+02
2.550000000000000000e+01  1.990900000000000000e+04  1.410992558449547687e+02
2.562500000000000000e+01  2.021867647058823422e+04  1.442683036068752926e+02
2.575000000000000000e+01  2.012079999999999927e+04  1.370379995962190662e+02
2.587500000000000000e+01  2.112864864864864649e+04  1.413738290225792866e+02
2.600000000000000000e+01  2.096550724637681196e+04  1.458401699720750173e+02
2.612500000000000000e+01  2.099805555555555475e+04  1.428802863748806260e+02
2.625000000000000000e+01  2.133985507246376801e+04  1.471364276254644494e+02
2.637500000000000000e+01  2.068845070422534991e+04  1.428182904063354783e+02
2.650000000000000000e+01  2.104239436619718253e+04  1.440347965408379878e+02
2.662500000000000000e+01  2.015188405797101586e+04  1.429823078169682162e+02
2.675000000000000000e+01  2.048362318840579974e+04  1.441543870043003324e+02
2.687500000000000000e+01  1.996300000000000000e+04  1.412904809249370430e+02
2.700000000000000000e+01  2.068800000000000000e+04  1.438332367709216157e+02
2.712500000000000000e+01  2.054027027027026998e+04  1.393914824901299596e+02
2.725000000000000000e+01  2.144138888888888687e+04  1.443807284684712329e+02
2.737500000000000000e+01  2.156189189189189347e+04  1.428159102553349840e+02
2.750000000000000000e+01  2.150149253731343197e+04  1.498807723976179886e+02
2.762500000000000000e+01  2.157847222222222263e+04  1.448415348442890149e+02
2.775000000000000000e+01  2.107492957746478714e+04  1.441461049887092543e+02
2.787500000000000000e+01  2.090463768115942003e+04  1.456283057810344985e+02
2.800000000000000000e+01  2.006300000000000000e+04  1.416439197424301710e+02
2.812500000000000000e+01  2.011161764705882524e+04  1.438858429907153607e+02
2.825000000000000000e+01  1.949400000000000000e+04  1.396209153386411401e+02
2.837500000000000000e+01  1.980300000000000000e+04  1.407231324267620209e+02
2.850000000000000000e+01  1.925378378378378329e+04  1.349556916709705376e+02
2.862500000000000000e+01  1.941041666666666788e+04  1.373726261885020676e+02
2.875000000000000000e+01  1.972444444444444525e+04  1.384793963370599954e+02
2.887500000000000000e+01  1.923000000000000000e+04  1.386722755275905854e+02
2.900000000000000000e+01  1.971565217391304395e+04  1.414262573336013986e+02
2.912500000000000000e+01  2.321338028169014069e+04  1.512826204943521020e+02
2.925000000000000000e+01  1.812112676056338023e+04  1.336633817583958148e+02
2.937500000000000000e+01  1.831632352941176578e+04  1.373136516422734985e+02
2.950000000000000000e+01  1.923800000000000000e+04  1.387011175153250235e+02
2.962500000000000000e+01  1.894800000000000000e+04  1.376517344605581172e+02
2.975000000000000000e+01  1.958072463768115995e+04  1.409414887661492060e+02
2.987500000000000000e+01  1.880067567567567676e+04  1.333582503501375527e+02
3.000000000000000000e+01  1.897972222222222263e+04  1.358400077887563384e+02
3.012500000000000000e+01  1.967097222222222263e+04  1.382915627475533711e+02
3.025000000000000000e+01  2.014900000000000000e+04  1.419471732723128241e+02
3.037500000000000000e+01  2.069200000000000000e+04  1.438471410908121015e+02
3.050000000000000000e+01  2.043900000000000000e+04  1.429650306893262552e+02
3.062500000000000000e+01  2.152900000000000000e+04  1.467276388414943540e+02
3.075000000000000000e+01  2.104100000000000000e+04  1.450551619212498053e+02
3.087500000000000000e+01  2.115217391304347620e+04  1.464879761555877735e+02
3.100000000000000000e+01  2.031318840579710013e+04  1.435534131975402659e+02
3.112500000000000000e+01  2.086913043478260806e+04  1.455045758747954210e+02
3.125000000000000000e+01  1.949547945205479482e+04  1.367270835093912353e+02
3.137500000000000000e+01  1.977972972972973002e+04  1.367865313170282207e+02
3.150000000000000000e+01  1.938704225352112553e+04  1.382533374655850480e+02
3.162500000000000000e+01  1.900400000000000000e+04  1.378549962823255726e+02
3.175000000000000000e+01  1.926069444444444525e+04  1.368417887720011947e+02
3.187500000000000000e+01  1.906739130434782419e+04  1.390817396668544177e+02
3.200000000000000000e+01  1.927942028985507204e+04  1.398528947791708674e+02
3.212500000000000000e+01  1.899957746478873014e+04  1.368648157204256393e+02
3.225000000000000000e+01  1.923641791044775891e+04  1.417665336237424185e+02
3.237500000000000000e+01  1.912700000000000000e+04  1.383003976856176678e+02
3.250000000000000000e+01  1.923681159420289987e+04  1.396982675810024830e+02
3.262500000000000000e+01  1.837783783783783656e+04  1.318500709061421503e+02
3.275000000000000000e+01  1.938408450704225470e+04  1.382427908872473097e+02
3.287500000000000000e+01  1.889416666666666788e+04  1.355334966113680366e+02
3.300000000000000000e+01  1.876985915492957793e+04  1.360349033942387393e+02
3.312500000000000000e+01  1.922400000000000000e+04  1.386506400994961155e+02
3.325000000000000000e+01  1.883000000000000000e+04  1.372224471433154349e+02
3.337500000000000000e+01  1.898100000000000000e+04  1.377715500384604184e+02
3.350000000000000000e+01  1.869608695652173992e+04  1.377208943425082452e+02
3.362500000000000000e+01  1.888100000000000364e+04  1.374081511410440442e+02
3.375000000000000000e+01  1.921191176470588107e+04  1.406306083080052076e+02
3.387500000000000000e+01  1.927942028985507204e+04  1.398528947791708674e+02
3.400000000000000000e+01  1.867444444444444525e+04  1.347431255261032277e+02
3.412500000000000000e+01  1.920053333333333285e+04  1.338674634770442538e+02
3.425000000000000000e+01  1.931797101449275215e+04  1.399926484102136328e+02
3.437500000000000000e+01  1.973605633802816737e+04  1.394922353163390198e+02
3.450000000000000000e+01  2.071802816901408733e+04  1.429203447916565892e+02
3.462500000000000000e+01  2.183391304347826008e+04  1.488299249675532110e+02
3.475000000000000000e+01  2.263700000000000000e+04  1.504559736268387553e+02
3.487500000000000000e+01  2.332281690140845240e+04  1.516388028260423937e+02
3.500000000000000000e+01  2.412074626865671598e+04  1.587475344176128829e+02
3.512500000000000000e+01  2.344898550724637607e+04  1.542362664126586651e+02
3.525000000000000000e+01  2.340536231884057997e+04  1.540927333406380910e+02
3.537500000000000000e+01  2.149887323943661977e+04  1.455887090673423643e+02
3.550000000000000000e+01  2.086945945945946005e+04  1.405040233223196537e+02
3.562500000000000000e+01  1.978918918918919007e+04  1.368192358079479050e+02
3.575000000000000000e+01  1.893144927536231626e+04  1.385850572949336197e+02
3.587500000000000000e+01  1.879746478873239539e+04  1.361349028116558486e+02
3.600000000000000000e+01  1.864400000000000000e+04  1.365430335095862802e+02
3.612500000000000000e+01  1.864600000000000000e+04  1.365503570116167680e+02
3.625000000000000000e+01  1.852941176470588107e+04  1.381100809632222877e+02
3.637500000000000000e+01  1.857130434782608427e+04  1.372605321503613141e+02
3.650000000000000000e+01  1.806913043478260806e+04  1.353920303797796407e+02
3.662500000000000000e+01  1.861691176470588107e+04  1.384357901450329109e+02
3.675000000000000000e+01  1.825600000000000000e+04  1.351147660324362789e+02
3.687500000000000000e+01  1.848921052631579005e+04  1.304972643815966364e+02
3.700000000000000000e+01  1.827097222222222263e+04  1.332795753896649558e+02
3.712500000000000000e+01  1.834098591549295816e+04  1.344717894958058650e+02
3.725000000000000000e+01  1.857100000000000000e+04  1.362754563375224848e+02
3.737500000000000000e+01  1.821000000000000000e+04  1.349444330085535739e+02
3.750000000000000000e+01  1.851000000000000000e+04  1.360514608521349089e+02
3.762500000000000000e+01  1.819898550724637607e+04  1.358776615945199353e+02
3.775000000000000000e+01  1.855202898550724785e+04  1.371892815448949534e+02
3.787500000000000000e+01  1.809447761194029590e+04  1.374942838885572485e+02
3.800000000000000000e+01  1.848400000000000000e+04  1.359558751948587201e+02
3.812500000000000000e+01  1.811681159420289987e+04  1.355705501983207171e+02
3.825000000000000000e+01  1.901363636363636033e+04  1.314729020252543989e+02
3.837500000000000000e+01  1.892957746478873014e+04  1.366124580617706101e+02
3.850000000000000000e+01  1.954800000000000000e+04  1.398141623727725289e+02
3.862500000000000000e+01  2.031380281690140691e+04  1.415192316191400721e+02
3.875000000000000000e+01  2.027869565217391573e+04  1.434314811750213039e+02
3.887500000000000000e+01  2.082600000000000000e+04  1.443121616496683259e+02
3.900000000000000000e+01  2.066899999999999636e+04  1.437671728872763310e+02
3.912500000000000000e+01  2.075753623188405982e+04  1.451150236547448458e+02
3.925000000000000000e+01  2.063700000000000000e+04  1.436558387257545348e+02
3.937500000000000000e+01  1.993196969696969609e+04  1.453959004250890530e+02
3.950000000000000000e+01  1.888376811594203173e+04  1.384104255998217923e+02
3.962500000000000000e+01  1.893266666666666424e+04  1.329303911409610066e+02
3.975000000000000000e+01  1.860369863013698341e+04  1.335633298102228821e+02
3.987500000000000000e+01  1.798605633802816737e+04  1.331643030277740820e+02
4.000000000000000000e+01  1.826900000000000000e+04  1.351628647225265070e+02
4.012500000000000000e+01  1.812900000000000000e+04  1.346439749858863877e+02
4.025000000000000000e+01  1.785000000000000000e+04  1.345685537269904444e+02
4.037500000000000000e+01  1.816154929577465009e+04  1.338123791987126765e+02
4.050000000000000000e+01  1.862608695652173992e+04  1.374628322338321595e+02
4.062500000000000000e+01  1.797867647058823422e+04  1.360421297711277475e+02
4.075000000000000000e+01  1.842115942028985592e+04  1.367045454446251824e+02
4.087500000000000000e+01  1.806308823529411893e+04  1.363611217918515877e+02
4.100000000000000000e+01  1.821986486486486683e+04  1.312821667424860266e+02
4.112500000000000000e+01  1.785680555555555475e+04  1.317603247529860084e+02
4.125000000000000000e+01  1.819611111111111313e+04  1.330062539140431284e+02
4.137500000000000000e+01  1.817338028169014069e+04  1.338559568309573820e+02
4.150000000000000000e+01  1.809300000000000000e+04  1.345102226598409914e+02
4.162500000000000000e+01  1.843333333333333212e+04  1.367497096588780323e+02
4.175000000000000000e+01  1.833797101449275215e+04  1.363955230583283083e+02
4.187500000000000000e+01  1.880057971014492796e+04  1.381052203208016635e+02
4.200000000000000000e+01  1.883507246376811599e+04  1.382318506295144971e+02
4.212500000000000000e+01  1.974205882352940898e+04  1.425577343130029817e+02
4.225000000000000000e+01  2.051913043478260806e+04  1.442792747997299045e+02
4.237500000000000000e+01  2.146351351351351332e+04  1.424897315383257421e+02
4.250000000000000000e+01  2.256205479452055079e+04  1.470878889074109850e+02
4.262500000000000000e+01  2.375169014084507216e+04  1.530266620357083696e+02
4.275000000000000000e+01  2.440500000000000000e+04  1.562209973083004400e+02
4.287500000000000000e+01  2.415887323943661977e+04  1.543327814145875720e+02
4.300000000000000000e+01  2.395217391304347620e+04  1.558823494443965956e+02
4.312500000000000000e+01  2.314565217391304395e+04  1.532354280455978142e+02
4.325000000000000000e+01  2.195768115942029181e+04  1.492511588651836973e+02
4.337500000000000000e+01  2.077681159420289987e+04  1.451823846260733148e+02
4.350000000000000000e+01  2.027565217391304395e+04  1.434207174902532529e+02
4.362500000000000000e+01  1.939626865671642008e+04  1.423543406365325268e+02
4.375000000000000000e+01  2.053800000000000000e+04  1.384514355288524996e+02
4.387500000000000000e+01  2.152260273972602590e+04  1.436597097873152791e+02
4.400000000000000000e+01  1.701291666666666424e+04  1.286092362474334720e+02
4.412500000000000000e+01  2.027869565217391573e+04  1.434314811750213039e+02
4.425000000000000000e+01  1.893144927536231626e+04  1.385850572949336197e+02
4.437500000000000000e+01  1.947200000000000000e+04  1.395421083400992757e+02
4.450000000000000000e+01  2.031318840579710013e+04  1.435534131975402659e+02
4.462500000000000000e+01  2.036391304347826008e+04  1.437325370889327303e+02
4.475000000000000000e+01  2.000072463768115995e+04  1.424450427784003637e+02
4.487500000000000000e+01  2.029695652173913186e+04  1.434960463284938896e+02
4.500000000000000000e+01  2.066115942028985592e+04  1.447777486816863757e+02
4.512500000000000000e+01  2.085424657534246580e+04  1.414115368118141589e+02
4.525000000000000000e+01  2.020890410958904249e+04  1.392063260091860570e+02
4.537500000000000000e+01  2.021718309859154760e+04  1.411822724029646281e+02
4.550000000000000000e+01  2.021323943661971498e+04  1.411685018813612658e+02
4.562500000000000000e+01  2.007478260869565202e+04  1.427085193220171675e+02
4.575000000000000000e+01  2.124700000000000000e+04  1.457635070928248524e+02
4.587500000000000000e+01  2.154173913043478387e+04  1.478307757142171397e+02
4.600000000000000000e+01  2.264855072463768374e+04  1.515809704092572758e+02
4.612500000000000000e+01  2.331720588235294417e+04  1.549290355464827655e+02
4.625000000000000000e+01  2.498900000000000000e+04  1.580790941269591201e+02
4.637500000000000000e+01  2.462558823529411893e+04  1.592164257927382778e+02
4.650000000000000000e+01  2.607200000000000000e+04  1.614682631355152580e+02
4.662500000000000000e+01  2.509684210526316019e+04  1.520378652355194333e+02
4.675000000000000000e+01  2.496800000000000000e+04  1.580126577208294520e+02
4.687500000000000000e+01  2.403916666666666788e+04  1.528771141702937939e+02
4.700000000000000000e+01  2.253086956521739194e+04  1.511866525416257900e+02
4.712500000000000000e+01  2.118700000000000000e+04  1.455575487564969990e+02
4.725000000000000000e+01  1.928300000000000000e+04  1.388632420765121083e+02
4.737500000000000000e+01  1.896900000000000000e+04  1.377279927973975759e+02
4.750000000000000000e+01  1.812794117647059102e+04  1.366056950385122946e+02
4.762500000000000000e+01  1.847794117647059102e+04  1.379181280129703282e+02
4.775000000000000000e+01  1.742176470588235316e+04  1.339185183242892947e+02
4.787500000000000000e+01  1.805492753623188401e+04  1.353388087456772837e+02
4.800000000000000000e+01  1.752578947368420995e+04  1.270518575827817500e+02
4.812500000000000000e+01  1.778388888888888687e+04  1.314910338209744225e+02
4.825000000000000000e+01  1.761633802816901516e+04  1.317885449921674876e+02
4.837500000000000000e+01  1.770000000000000000e+04  1.330413469565007176e+02
4.850000000000000000e+01  1.806591549295774530e+04  1.334596042964777496e+02
4.862500000000000000e+01  1.792202898550724785e+04  1.348397884009828829e+02
4.875000000000000000e+01  1.789735294117647209e+04  1.357340991598665596e+02
4.887500000000000000e+01  1.761838235294117476e+04  1.346720834813368128e+02
4.900000000000000000e+01  1.830808823529411893e+04  1.372827790317675749e+02
4.912500000000000000e+01  1.822536231884057997e+04  1.359760935040453376e+02
4.925000000000000000e+01  1.955402985074626849e+04  1.429320937583746911e+02
4.937500000000000000e+01  2.101974358974358984e+04  1.373458133775252463e+02
4.950000000000000000e+01  2.411597222222222263e+04  1.531211419267054339e+02
4.962500000000000000e+01  2.651521126760563493e+04  1.616841290534732423e+02
4.975000000000000000e+01  2.981708333333333212e+04  1.702610672423925280e+02
4.987500000000000000e+01  3.266323529411764684e+04  1.833682597537564618e+02
5.000000000000000000e+01  3.424217391304347984e+04  1.863825026741716044e+02
5.012500000000000000e+01  3.481434782608695241e+04  1.879332423805921906e+02
5.025000000000000000e+01  3.459338235294117476e+04  1.887083325534050289e+02
5.037500000000000000e+01  3.375647058823529369e+04  1.864116626138973629e+02
5.050000000000000000e+01  3.107897058823529369e+04  1.788660335515871509e+02
5.062500000000000000e+01  2.843955882352940898e+04  1.711023566055890228e+02
5.075000000000000000e+01  2.404363636363636397e+04  1.478440098200445334e+02
5.087500000000000000e+01  2.137625000000000000e+04  1.441612474896696199e+02
5.100000000000000000e+01  1.975821917808219223e+04  1.376453325326508264e+02
5.112500000000000000e+01  1.853681159420289987e+04  1.371330049171137659e+02
5.125000000000000000e+01  1.823500000000000000e+04  1.350370319579040483e+02
5.137500000000000000e+01  1.762558823529411529e+04  1.346996209693010087e+02
5.150000000000000000e+01  1.814927536231884005e+04  1.356919612157784911e+02
5.162500000000000000e+01  1.776764705882352791e+04  1.352413579992999360e+02
5.175000000000000000e+01  1.774144927536231990e+04  1.341587556912646733e+02
5.187500000000000000e+01  1.740666666666666424e+04  1.328869338876762072e+02
5.200000000000000000e+01  1.772441176470588471e+04  1.350767115126793101e+02
5.212500000000000000e+01  1.722181818181818016e+04  1.251247311569836569e+02
5.225000000000000000e+01  1.737750000000000000e+04  1.299799664050836157e+02
5.237500000000000000e+01  1.710760563380281747e+04  1.298716806766487650e+02
5.250000000000000000e+01  1.730420289855072406e+04  1.324952393401554787e+02
5.262500000000000000e+01  1.713800000000000000e+04  1.309121843068856492e+02
5.275000000000000000e+01  1.720867647058823422e+04  1.330970097854975620e+02
5.287500000000000000e+01  1.715492957746478714e+04  1.300511855040992089e+02
5.300000000000000000e+01  1.695750000000000000e+04  1.321221026172381130e+02
5.312500000000000000e+01  1.763797101449275215e+04  1.337669383024771719e+02
5.325000000000000000e+01  1.712529411764705947e+04  1.327741663078865884e+02
5.337500000000000000e+01  1.790147058823529369e+04  1.357497124456097879e+02
5.350000000000000000e+01  1.757933333333333212e+04  1.280912868925040300e+02
5.362500000000000000e+01  1.787972602739726062e+04  1.309386985042900449e+02
5.375000000000000000e+01  1.761239436619718253e+04  1.317737928182820895e+02
5.387500000000000000e+01  1.808637681159420026e+04  1.354566285371844856e+02
5.400000000000000000e+01  1.813295774647887447e+04  1.337070079517214936e+02
5.412500000000000000e+01  1.762579710144927594e+04  1.337207666604289500e+02
5.425000000000000000e+01  1.768666666666666424e+04  1.339514657220372840e+02
5.437500000000000000e+01  1.747323529411764684e+04  1.341161958125816795e+02
5.450000000000000000e+01  1.780942028985507204e+04  1.344155044267131984e+02
5.462500000000000000e+01  1.717058823529411529e+04  1.329496353373418742e+02
5.475000000000000000e+01  1.807671641791044749e+04  1.374267864379164621e+02
5.487500000000000000e+01  1.697868421052631675e+04  1.250530358402113649e+02
5.500000000000000000e+01  1.716917808219178187e+04  1.283105429077431268e+02
5.512500000000000000e+01  1.728112676056338023e+04  1.305286581904761363e+02
5.525000000000000000e+01  1.736300000000000000e+04  1.317687368080911767e+02
5.537500000000000000e+01  1.769000000000000000e+04  1.330037593453658644e+02
5.550000000000000000e+01  1.733869565217391209e+04  1.326272260752230068e+02
5.562500000000000000e+01  1.739845070422534991e+04  1.309709971816561733e+02
5.575000000000000000e+01  1.705735294117647209e+04  1.325105271002554730e+02
5.587500000000000000e+01  1.774397058823529369e+04  1.351512192920380926e+02
5.600000000000000000e+01  1.760029850746268494e+04  1.356037299448692011e+02
5.612500000000000000e+01  1.899985294117647209e+04  1.398523226311551753e+02
5.625000000000000000e+01  1.980716216216216344e+04  1.368813528132712065e+02
5.637500000000000000e+01  2.211810810810810653e+04  1.446462398296582990e+02
5.650000000000000000e+01  2.364323943661971498e+04  1.526769008863913371e+02
5.662500000000000000e+01  2.565549295774647908e+04  1.590413404952014673e+02
5.675000000000000000e+01  2.782000000000000000e+04  1.667932852365466090e+02
5.687500000000000000e+01  2.938000000000000000e+04  1.714059508885266325e+02
5.700000000000000000e+01  3.110536231884057997e+04  1.776405490626719086e+02
5.712500000000000000e+01  3.039955882352940898e+04  1.769001512006411190e+02
5.725000000000000000e+01  3.100691176470588107e+04  1.786585563520131643e+02
5.737500000000000000e+01  2.938764705882352791e+04  1.739309909687665652e+02
5.750000000000000000e+01  2.930805970149253699e+04  1.749867448755944679e+02
5.762500000000000000e+01  2.538763888888888687e+04  1.571064183842622413e+02
5.775000000000000000e+01  2.346565789473683981e+04  1.470139651722878682e+02
5.787500000000000000e+01  2.119323943661971498e+04  1.445501404583422982e+02
5.800000000000000000e+01  1.919652777777777737e+04  1.366136555951187574e+02
5.812500000000000000e+01  1.749200000000000000e+04  1.322573249389235173e+02
5.825000000000000000e+01  1.669300000000000000e+04  1.292013931813430645e+02
5.837500000000000000e+01  1.665897058823529369e+04  1.309539625647833532e+02
5.850000000000000000e+01  1.817220588235294417e+04  1.367723748640475776e+02
5.862500000000000000e+01  1.064835820895522374e+04  1.054758283568569937e+02
5.875000000000000000e+01  1.757811594202898414e+04  1.335397740208386494e+02
5.887500000000000000e+01  1.914552238805970410e+04  1.414312008877107303e+02
5.900000000000000000e+01  1.738859154929577562e+04  1.309338833502040700e+02
5.912500000000000000e+01  1.688818181818181620e+04  1.239067898138898300e+02
5.925000000000000000e+01  1.683986111111111313e+04  1.279534571293719409e+02
5.937500000000000000e+01  1.680394366197183263e+04  1.287139013437443680e+02
5.950000000000000000e+01  1.746500000000000000e+04  1.321552117776669490e+02
5.962500000000000000e+01  1.739652173913043589e+04  1.328482037612706961e+02
5.975000000000000000e+01  1.847279411764705583e+04  1.378989180222074822e+02
5.987500000000000000e+01  1.879144927536231626e+04  1.380716810933103318e+02
6.000000000000000000e+01  2.112867647058823422e+04  1.474791786371482374e+02
6.012500000000000000e+01  2.145134328358208950e+04  1.497058822885800566e+02
6.025000000000000000e+01  2.327246376811594018e+04  1.536546317287956924e+02
6.037500000000000000e+01  2.382716417910447490e+04  1.577784906995329095e+02
6.050000000000000000e+01  2.603740740740740875e+04  1.500048772259977170e+02
6.062500000000000000e+01  2.565402777777777737e+04  1.579285151423318041e+02
6.075000000000000000e+01  2.583900000000000000e+04  1.607451398954257513e+02
6.087500000000000000e+01  2.597300000000000000e+04  1.611614097729354000e+02
6.100000000000000000e+01  2.524971014492753602e+04  1.600488924457613962e+02
6.112500000000000000e+01  2.487739130434782419e+04  1.588645121079890146e+02
6.125000000000000000e+01  2.226000000000000000e+04  1.525015292313832731e+02
6.137500000000000000e+01  2.215855072463768374e+04  1.499322818506300905e+02
6.150000000000000000e+01  1.984808823529411893e+04  1.429400417529398055e+02
6.162500000000000000e+01  1.948716417910447490e+04  1.426875039000039465e+02
6.175000000000000000e+01  1.729304347826086814e+04  1.324525095903674696e+02
6.187500000000000000e+01  1.701262500000000000e+04  1.220083885435751512e+02
6.200000000000000000e+01  1.674166666666666424e+04  1.275798587958552588e+02
6.212500000000000000e+01  1.665300000000000000e+04  1.290465032459229349e+02
6.225000000000000000e+01  1.683200000000000000e+04  1.297381979218148444e+02
6.237500000000000000e+01  1.603102941176470449e+04  1.284621744982413531e+02
6.250000000000000000e+01  1.717840579710144812e+04  1.320127577166615822e+02
6.262500000000000000e+01  1.701101449275362393e+04  1.313679981375890122e+02
6.275000000000000000e+01  1.786826086956521976e+04  1.346373691514457676e+02
6.287500000000000000e+01  1.819686567164179360e+04  1.378827425812066849e+02
6.300000000000000000e+01  1.977602941176470631e+04  1.426803326868848387e+02
6.312500000000000000e+01  2.041159420289855188e+04  1.439007102440347978e+02
6.325000000000000000e+01  2.301833333333333212e+04  1.437270977668394778e+02
6.337500000000000000e+01  2.421416666666666788e+04  1.534325614917704570e+02
6.350000000000000000e+01  2.548985915492957793e+04  1.585271177248735626e+02
6.362500000000000000e+01  2.683028985507246398e+04  1.649822252110231489e+02
6.375000000000000000e+01  2.686300000000000000e+04  1.638993593642147175e+02
6.387500000000000000e+01  2.786405797101449207e+04  1.681305590846906171e+02
6.400000000000000000e+01  2.705191176470588107e+04  1.668758707194473629e+02
6.412500000000000000e+01  2.682115942028985592e+04  1.649541508288178306e+02
6.425000000000000000e+01  2.577132352941176578e+04  1.628781864867668219e+02
6.437500000000000000e+01  2.566362318840579974e+04  1.613553834129921825e+02
6.450000000000000000e+01  2.282424242424242402e+04  1.555876918136312099e+02
6.462500000000000000e+01  2.134909090909090810e+04  1.393135473053856117e+02
6.475000000000000000e+01  1.942547945205479482e+04  1.364813982831096837e+02
6.487500000000000000e+01  1.834492957746478714e+04  1.344862457191862291e+02
6.500000000000000000e+01  1.758800000000000000e+04  1.326197572008032353e+02
6.512500000000000000e+01  1.700594202898550793e+04  1.313484105611553332e+02
6.525000000000000000e+01  1.661600000000000000e+04  1.289030643545761450e+02
6.537500000000000000e+01  1.625826086956521794e+04  1.284285320273083073e+02
6.550000000000000000e+01  1.606911764705882342e+04  1.286146910517039714e+02
6.562500000000000000e+01  1.618420289855072406e+04  1.281356958998822790e+02
6.575000000000000000e+01  1.701104477611940456e+04  1.333144153802747951e+02
6.587500000000000000e+01  1.584227272727272612e+04  1.296241122180574905e+02
6.600000000000000000e+01  1.721447368421052670e+04  1.259183715273058937e+02
6.612500000000000000e+01  1.734413333333333503e+04  1.272315125186279374e+02
6.625000000000000000e+01  1.850957746478873014e+04  1.350884124958050450e+02
6.637500000000000000e+01  1.916600000000000000e+04  1.384413233106358234e+02
6.650000000000000000e+01  2.031100000000000000e+04  1.425166656921217623e+02
6.662500000000000000e+01  2.168985507246376801e+04  1.483381299536691813e+02
6.675000000000000000e+01  2.169400000000000000e+04  1.472888318916271260e+02
6.687500000000000000e+01  2.340367647058823422e+04  1.552160426508605724e+02
6.700000000000000000e+01  2.362238805970149042e+04  1.570990354141180774e+02
6.712500000000000000e+01  2.451776119402984841e+04  1.600486532175376055e+02
6.725000000000000000e+01  2.366954545454545223e+04  1.584426185118181820e+02
6.737500000000000000e+01  2.520000000000000000e+04  1.523500125231024640e+02
6.750000000000000000e+01  2.396053333333333285e+04  1.495431858843606676e+02
6.762500000000000000e+01  2.325971830985915585e+04  1.514335387010522993e+02
6.775000000000000000e+01  2.216083333333333212e+04  1.467830188735387367e+02
6.787500000000000000e+01  2.103800000000000000e+04  1.450448206589949223e+02
6.800000000000000000e+01  2.038724637681159220e+04  1.438148591613744145e+02
6.812500000000000000e+01  1.879400000000000000e+04  1.370912105132929355e+02
6.825000000000000000e+01  1.816552238805970410e+04  1.377639429877247039e+02
6.837500000000000000e+01  1.640545454545454777e+04  1.319080153664148725e+02
6.850000000000000000e+01  1.784791044776119452e+04  1.365542771833380868e+02
6.862500000000000000e+01  1.650328358208955251e+04  1.313096971982744208e+02
6.875000000000000000e+01  1.637054054054054177e+04  1.244413374135302348e+02
6.887500000000000000e+01  1.626578947368421177e+04  1.223995432975384290e+02
6.900000000000000000e+01  1.652972222222222263e+04  1.267697253748107471e+02
6.912500000000000000e+01  1.663338028169014069e+04  1.280589993712905539e+02
6.925000000000000000e+01  1.645985915492957793e+04  1.273892858632446803e+02
6.937500000000000000e+01  1.681900000000000000e+04  1.296880873480675689e+02
6.950000000000000000e+01  1.649323529411764684e+04  1.303009226745036813e+02
6.962500000000000000e+01  1.664328358208955251e+04  1.318654815902135056e+02
6.975000000000000000e+01  1.640925373134328402e+04  1.309350848158422025e+02
6.987500000000000000e+01  1.816029850746268858e+04  1.377441330940330317e+02
7.000000000000000000e+01  1.656878787878787989e+04  1.325630296920625426e+02
7.012500000000000000e+01  1.794972602739726062e+04  1.311947638195541970e+02
7.025000000000000000e+01  1.700371794871794918e+04  1.235303480002164065e+02
7.037500000000000000e+01  1.737246575342465803e+04  1.290679232212782779e+02
7.050000000000000000e+01  1.731957746478873378e+04  1.306737913815049126e+02
7.062500000000000000e+01  1.761436619718309885e+04  1.317811691116528436e+02
7.075000000000000000e+01  1.793955882352940898e+04  1.358940502986587546e+02
7.087500000000000000e+01  1.716441176470588471e+04  1.329257213816960643e+02
7.100000000000000000e+01  1.771522388059701552e+04  1.360457381189327748e+02
7.112500000000000000e+01  1.732865671641791050e+04  1.345532114765217386e+02
7.125000000000000000e+01  1.800567164179104293e+04  1.371564644672456836e+02
7.137500000000000000e+01  1.668089552238805845e+04  1.320143980482705786e+02
7.150000000000000000e+01  1.766700000000000000e+04  1.329172675012543152e+02
7.162500000000000000e+01  1.700049382716049513e+04  1.212096728355626283e+02
7.175000000000000000e+01  1.741849315068493161e+04  1.292387893205455214e+02
7.187500000000000000e+01  1.676791666666666424e+04  1.276798386735498099e+02
7.200000000000000000e+01  1.712768115942028817e+04  1.318177090629339148e+02
7.212500000000000000e+01  1.740014705882352791e+04  1.338354067127432359e+02
7.225000000000000000e+01  1.694000000000000000e+04  1.320539105597318041e+02
7.237500000000000000e+01  1.763164179104477444e+04  1.357244203861311576e+02
7.250000000000000000e+01  1.730132352941176578e+04  1.334548087786992028e+02
7.262500000000000000e+01  1.786149253731343197e+04  1.366062255531558947e+02
7.275000000000000000e+01  1.679791044776119452e+04  1.324766231894925852e+02
7.287500000000000000e+01  1.878194029850746301e+04  1.400818428631390020e+02
7.300000000000000000e+01  1.786333333333333576e+04  1.220086517879413037e+02
7.312500000000000000e+01  2.417876712328767098e+04  1.522666055289765268e+02
7.325000000000000000e+01  2.125042253521126986e+04  1.447450199812180927e+02
7.337500000000000000e+01  1.101434782608695787e+04  1.057070293568527859e+02
7.350000000000000000e+01  1.956500000000000000e+04  1.419170221519271990e+02
7.362500000000000000e+01  1.893191176470588107e+04  1.396020511989775059e+02
7.375000000000000000e+01  1.949500000000000000e+04  1.416629180588243457e+02
7.387500000000000000e+01  1.920058823529411893e+04  1.405891582544156222e+02
7.400000000000000000e+01  1.991447761194029590e+04  1.442434422749977898e+02
7.412500000000000000e+01  1.841522388059701552e+04  1.387075561889377866e+02
7.425000000000000000e+01  2.017358208955224109e+04  1.451787753426097538e+02
7.437500000000000000e+01  1.877433734939758870e+04  1.258323427718158172e+02
7.450000000000000000e+01  1.906932432432432324e+04  1.343076693138668531e+02
7.462500000000000000e+01  1.852400000000000000e+04  1.361029022467926666e+02
7.475000000000000000e+01  1.816144927536231626e+04  1.357374623497514108e+02
7.487500000000000000e+01  1.846173913043478387e+04  1.368550348621041621e+02
7.500000000000000000e+01  1.723338235294117476e+04  1.331925168310606864e+02
7.512500000000000000e+01  1.869720588235294417e+04  1.387340034109235489e+02
7.525000000000000000e+01  1.740323529411764684e+04  1.338472829597573366e+02
7.537500000000000000e+01  1.855940298507462649e+04  1.392494920248632297e+02
7.550000000000000000e+01  1.692250000000000000e+04  1.319856832699489928e+02
7.562500000000000000e+01  1.920089552238806209e+04  1.416355785561761707e+02
7.575000000000000000e+01  1.810839506172839538e+04  1.250968836552657848e+02
7.587500000000000000e+01  1.936027397260273938e+04  1.362521422770978461e+02
7.600000000000000000e+01  1.936732394366196968e+04  1.381830117387367522e+02
7.612500000000000000e+01  2.046942028985507204e+04  1.441044015806784273e+02
7.625000000000000000e+01  2.178927536231884005e+04  1.486777117182421932e+02
7.637500000000000000e+01  2.188362318840579974e+04  1.489992521714725342e+02
7.650000000000000000e+01  2.423029411764705583e+04  1.579333714798415258e+02
7.662500000000000000e+01  2.294352941176470631e+04  1.536825920537066850e+02
7.675000000000000000e+01  2.552838235294117476e+04  1.621086583993207739e+02
7.687500000000000000e+01  2.329223880597015159e+04  1.559973553362655991e+02
7.700000000000000000e+01  2.686196969696969609e+04  1.687897149130313892e+02
7.712500000000000000e+01  2.478531645569620014e+04  1.481947124861232510e+02
7.725000000000000000e+01  2.676270270270270339e+04  1.591102451892342344e+02
7.737500000000000000e+01  2.591750000000000000e+04  1.587374229488574144e+02
7.750000000000000000e+01  2.577300000000000000e+04  1.605397147125906656e+02
7.762500000000000000e+01  2.628246376811594018e+04  1.632892189953691400e+02
7.775000000000000000e+01  2.464202898550724785e+04  1.581112261680671338e+02
7.787500000000000000e+01  2.402318840579710013e+04  1.561132619497963958e+02
7.800000000000000000e+01  2.265838235294117476e+04  1.527246062798061530e+02
7.812500000000000000e+01  2.336970588235294417e+04  1.551033531971838784e+02
7.825000000000000000e+01  2.036787878787879163e+04  1.469771944354424704e+02
7.837500000000000000e+01  2.222609375000000000e+04  1.559159710839864488e+02
7.850000000000000000e+01  1.955835443037974619e+04  1.316441699049249223e+02
7.862500000000000000e+01  2.019173333333333358e+04  1.372793421377658660e+02
7.875000000000000000e+01  1.939388888888888687e+04  1.373141280170631831e+02
7.887500000000000000e+01  1.907450704225352092e+04  1.371344304450541358e+02
7.900000000000000000e+01  1.988710144927536021e+04  1.420398546565683660e+02
7.912500000000000000e+01  1.861400000000000000e+04  1.364331338055386027e+02
7.925000000000000000e+01  1.966485294117647209e+04  1.422787087685930771e+02
7.937500000000000000e+01  1.859869565217391573e+04  1.373617194343952974e+02
7.950000000000000000e+01  1.901283582089552510e+04  1.409402597833610002e+02
7.962500000000000000e+01  1.817593750000000000e+04  1.409962114406802129e+02
7.975000000000000000e+01  1.923140625000000000e+04  1.450322398156268378e+02
7.987500000000000000e+01  1.839454545454545587e+04  1.293147866625730273e+02
8.000000000000000000e+01  1.889192307692307440e+04  1.302086400390865037e+02
8.012500000000000000e+01  1.883388888888888687e+04  1.353171286594641742e+02
8.025000000000000000e+01  1.885430555555555475e+04  1.353904533033220048e+02
8.037500000000000000e+01  1.960100000000000000e+04  1.400035713830186523e+02
8.050000000000000000e+01  1.755900000000000000e+04  1.325103769521466575e+02
8.062500000000000000e+01  1.943159420289855188e+04  1.404037446444607440e+02
8.075000000000000000e+01  1.766058823529411529e+04  1.348332944826242397e+02
8.087500000000000000e+01  2.087968750000000000e+04  1.511196817199037241e+02
8.100000000000000000e+01  1.774500000000000000e+04  1.393147291207932597e+02
8.112500000000000000e+01  1.975312500000000000e+04  1.469863274891579863e+02
8.125000000000000000e+01  1.848092105263157646e+04  1.304680074559624927e+02
8.137500000000000000e+01  1.878975000000000000e+04  1.282225847891080264e+02
8.150000000000000000e+01  1.914164383561643990e+04  1.354806293839172326e+02
8.162500000000000000e+01  1.911777777777777737e+04  1.363331522230074881e+02
8.175000000000000000e+01  1.963056338028169193e+04  1.391189295966178463e+02
8.187500000000000000e+01  1.825126760563380230e+04  1.341424895344953825e+02
8.200000000000000000e+01  1.966898550724637607e+04  1.412587812074738167e+02
8.212500000000000000e+01  1.824812500000000000e+04  1.412759240590908405e+02
8.225000000000000000e+01  2.010750000000000000e+04  1.482989484959350648e+02
8.237500000000000000e+01  1.831812500000000000e+04  1.415466326648218001e+02
8.250000000000000000e+01  2.037109375000000000e+04  1.492678256995207278e+02
8.262500000000000000e+01  1.876479452054794820e+04  1.341403689474102521e+02
8.275000000000000000e+01  1.968750000000000000e+04  1.280868845744950022e+02
8.287500000000000000e+01  1.991266666666666424e+04  1.363273837332601204e+02
8.300000000000000000e+01  1.957794520547944921e+04  1.370159556943763732e+02
8.312500000000000000e+01  2.128680555555555475e+04  1.438593250409391260e+02
8.325000000000000000e+01  2.019253521126760461e+04  1.410961845936436418e+02
8.337500000000000000e+01  2.174812500000000000e+04  1.542303851993828232e+02
8.350000000000000000e+01  1.987234375000000000e+04  1.474292236178516191e+02
8.362500000000000000e+01  2.303765625000000000e+04  1.587370042662941785e+02
8.375000000000000000e+01  1.989093750000000000e+04  1.474981792790168527e+02
8.387500000000000000e+01  2.333078125000000000e+04  1.597436759067084324e+02
8.400000000000000000e+01  1.989750000000000000e+04  1.475225088757644585e+02
8.412500000000000000e+01  2.255638297872340627e+04  1.296044230476623227e+02
8.425000000000000000e+01  2.159181818181818016e+04  1.401032676986326067e+02
8.437500000000000000e+01  2.075546666666666715e+04  1.391825020930752430e+02
8.450000000000000000e+01  2.322657534246575233e+04  1.492382610042408260e+02
8.462500000000000000e+01  1.963230769230769147e+04  1.454045570369119957e+02
8.475000000000000000e+01  2.306500000000000000e+04  1.588311800308742647e+02
8.487500000000000000e+01  1.988218750000000000e+04  1.474657335726676592e+02
8.500000000000000000e+01  2.178968750000000000e+04  1.543776884887353162e+02
8.512500000000000000e+01  1.951359375000000000e+04  1.460924130954872737e+02
8.525000000000000000e+01  2.143750000000000000e+04  1.531250000000000000e+02
8.537500000000000000e+01  2.091031250000000000e+04  1.512304674887801923e+02
8.550000000000000000e+01  1.995583333333333212e+04  1.206280583953095942e+02
8.562500000000000000e+01  2.025100000000000000e+04  1.331150817901562959e+02
8.575000000000000000e+01  1.993454545454545587e+04  1.346191444393655843e+02
8.587500000000000000e+01  2.124656716417910502e+04  1.489896170624850242e+02
8.600000000000000000e+01  1.882125000000000000e+04  1.434773229033076234e+02
8.612500000000000000e+01  2.195265625000000000e+04  1.549539214522739883e+02
8.625000000000000000e+01  1.924890625000000000e+04  1.450982122940785928e+02
8.637500000000000000e+01  2.166390625000000000e+04  1.539314700148657096e+02
8.650000000000000000e+01  1.976843750000000000e+04  1.470432878972209210e+02
8.662500000000000000e+01  2.204015625000000000e+04  1.552624259067128776e+02
8.675000000000000000e+01  2.028468750000000000e+04  1.489509212899504007e+02
8.687500000000000000e+01  2.178190000000000146e+04  1.234800793650538537e+02
8.700000000000000000e+01  2.177329411764705947e+04  1.339064901223455024e+02
8.712500000000000000e+01  2.056521126760563493e+04  1.423922764923772206e+02
8.725000000000000000e+01  2.260781250000000000e+04  1.572491491928493872e+02
8.737500000000000000e+01  2.017093750000000000e+04  1.485326997351929776e+02
8.750000000000000000e+01  2.234421875000000000e+04  1.563297452752114793e+02
8.762500000000000000e+01  2.062484375000000000e+04  1.501946165864892180e+02
8.775000000000000000e+01  2.259906250000000000e+04  1.572187158368080588e+02
8.787500000000000000e+01  3.018750000000000000e+04  1.817073970013328790e+02
8.800000000000000000e+01  3.085468750000000000e+03  5.809243879639156916e+01
8.812500000000000000e+01  2.718843750000000000e+04  1.724452188830557304e+02
8.825000000000000000e+01  2.135064220183486032e+04  1.170957795887991182e+02
8.837500000000000000e+01  2.119903614457831281e+04  1.337112754489107544e+02
8.850000000000000000e+01  1.933312500000000000e+04  1.454152862279272256e+02
8.862500000000000000e+01  2.203468750000000000e+04  1.552431623393603672e+02
8.875000000000000000e+01  1.924125000000000000e+04  1.450693530264059632e+02
8.887500000000000000e+01  2.153593750000000000e+04  1.534761598445341519e+02
8.900000000000000000e+01  1.912640625000000000e+04  1.446357730160056292e+02
8.912500000000000000e+01  2.143093750000000000e+04  1.531015607060391801e+02
8.925000000000000000e+01  1.883437500000000000e+04  1.435273411453371750e+02
8.937500000000000000e+01  2.197343750000000000e+04  1.550272468491426139e+02
8.950000000000000000e+01  1.929593750000000000e+04  1.452753648786503788e+02
8.962500000000000000e+01  2.116734375000000000e+04  1.075913152316730930e+02
8.975000000000000000e+01  2.289546875000000000e+04  1.582463868317773006e+02
8.987500000000000000e+01  2.058218750000000000e+04  1.500392201330205637e+02
9.000000000000000000e+01  2.341390625000000000e+04  1.600279974283797060e+02
9.012500000000000000e+01  2.060953125000000000e+04  1.501388517495971087e+02
9.025000000000000000e+01  2.357687500000000000e+04  1.605839563320383263e+02
9.037500000000000000e+01  2.065328125000000000e+04  1.502981249623144890e+02
9.050000000000000000e+01  2.391593750000000000e+04  1.617345251967711306e+02
9.062500000000000000e+01  2.174484375000000000e+04  1.542187500000000000e+02
9.075000000000000000e+01  2.353531250000000000e+04  1.604423511635098123e+02
9.087500000000000000e+01  2.240300000000000000e+04  1.496763174319838754e+02
9.100000000000000000e+01  2.245565573770491756e+04  1.135094385343706449e+02
9.112500000000000000e+01  2.422109375000000000e+04  1.627630833114883444e+02
9.125000000000000000e+01  2.137078125000000000e+04  1.528865330635354098e+02
9.137500000000000000e+01  2.404171875000000000e+04  1.621592731940190504e+02
9.150000000000000000e+01  2.037328125000000000e+04  1.492758398642844497e+02
9.162500000000000000e+01  2.419375000000000000e+04  1.626711838725592827e+02
9.175000000000000000e+01  2.058000000000000000e+04  1.500312467454696730e+02
9.187500000000000000e+01  2.389843750000000000e+04  1.616753413963459138e+02
9.200000000000000000e+01  2.036234375000000000e+04  1.492357647367497009e+02
9.212500000000000000e+01  2.230812500000000000e+04  1.562034305601192727e+02
9.225000000000000000e+01  2.045909090909090810e+04  1.275706739791874469e+02
9.237500000000000000e+01  2.118442307692307440e+04  1.194099924703755704e+02
9.250000000000000000e+01  2.208609375000000000e+04  1.554241456114927473e+02
9.262500000000000000e+01  1.950484375000000000e+04  1.460596551124316989e+02
9.275000000000000000e+01  2.154687500000000000e+04  1.535151280208240507e+02
9.287500000000000000e+01  2.019718750000000000e+04  1.486293168527831199e+02
9.300000000000000000e+01  2.093109375000000000e+04  1.513055973487514336e+02
9.312500000000000000e+01  1.963609375000000000e+04  1.465502560184133642e+02
9.325000000000000000e+01  2.287359375000000000e+04  1.581707721548532390e+02
9.337500000000000000e+01  2.001343750000000000e+04  1.479516720609300648e+02
9.350000000000000000e+01  2.130578947368420995e+04  1.400848081078168832e+02
9.362500000000000000e+01  2.062353658536585499e+04  1.326855608597942648e+02
9.375000000000000000e+01  2.102642857142857247e+04  1.225515301863685664e+02
9.387500000000000000e+01  2.302234375000000000e+04  1.586842414247946067e+02
9.400000000000000000e+01  2.021687500000000000e+04  1.487017384943767127e+02
9.412500000000000000e+01  2.175578125000000000e+04  1.542575305850171503e+02
9.425000000000000000e+01  2.062484375000000000e+04  1.501946165864892180e+02
9.437500000000000000e+01  2.236500000000000000e+04  1.564024256525454177e+02
9.450000000000000000e+01  2.056468750000000000e+04  1.499754211633526211e+02
9.462500000000000000e+01  2.194390625000000000e+04  1.549230372182830138e+02
9.475000000000000000e+01  2.037591549295774530e+04  1.417354252390870215e+02
9.487500000000000000e+01  2.194266666666666424e+04  1.431077294286448591e+02
9.500000000000000000e+01  2.128708860759493473e+04  1.373389138126409534e+02
9.512500000000000000e+01  2.032652631578947330e+04  1.223823534796307797e+02
9.525000000000000000e+01  2.240875000000000000e+04  1.565553266819752878e+02
9.537500000000000000e+01  2.002109375000000000e+04  1.479799692156424840e+02
9.550000000000000000e+01  2.268984375000000000e+04  1.575341759795711880e+02
9.562500000000000000e+01  2.048703125000000000e+04  1.496919851885447486e+02
9.575000000000000000e+01  2.155781250000000000e+04  1.535540863079683902e+02
9.587500000000000000e+01  2.007687500000000000e+04  1.481859711013495371e+02
9.600000000000000000e+01  2.201705882352940898e+04  1.505477312255572713e+02
9.612500000000000000e+01  2.056945205479451761e+04  1.404426292381953942e+02
9.625000000000000000e+01  2.159643835616438082e+04  1.439059188922138333e+02
9.637500000000000000e+01  2.137000000000000000e+04  1.393817517728656128e+02
9.650000000000000000e+01  2.148839080459770048e+04  1.314895807384743307e+02
9.662500000000000000e+01  2.284600000000000000e+04  1.511489331751964471e+02
9.675000000000000000e+01  2.119578125000000000e+04  1.522592714490237427e+02
9.687500000000000000e+01  2.353640625000000000e+04  1.604460792164691725e+02
9.700000000000000000e+01  2.090156250000000000e+04  1.511988226950692820e+02
9.712500000000000000e+01  2.386781250000000000e+04  1.615717175803828525e+02
9.725000000000000000e+01  2.208656716417910502e+04  1.519062800963951076e+02
9.737500000000000000e+01  2.374100000000000000e+04  1.540811474515944894e+02
9.750000000000000000e+01  2.242041666666666788e+04  1.476401954577912932e+02
9.762500000000000000e+01  2.389138888888888687e+04  1.524064932918898592e+02
9.775000000000000000e+01  2.333800000000000000e+04  1.475877140324808181e+02
9.787500000000000000e+01  2.352682926829268399e+04  1.417176017425657903e+02
9.800000000000000000e+01  2.407337837837838015e+04  1.509043229408946161e+02
9.812500000000000000e+01  2.223812500000000000e+04  1.559581649633965128e+02
9.825000000000000000e+01  2.473296875000000000e+04  1.644739631987765449e+02
9.837500000000000000e+01  2.255750000000000000e+04  1.570740768713920943e+02
9.850000000000000000e+01  2.565712121212120837e+04  1.649608991709249892e+02
9.862500000000000000e+01  2.200840579710144812e+04  1.494234526436796671e+02
9.875000000000000000e+01  2.512600000000000000e+04  1.585118292115764973e+02
9.887500000000000000e+01  2.253802816901408733e+04  1.490657276255984129e+02
9.900000000000000000e+01  2.338777777777777737e+04  1.507916353248767223e+02
9.912500000000000000e+01  2.374246575342465803e+04  1.508865400979688900e+02
9.925000000000000000e+01  2.293846153846153902e+04  1.434775202481839642e+02
9.937500000000000000e+01  2.470090909090908826e+04  1.498511658307216692e+02
9.950000000000000000e+01  2.136640625000000000e+04  1.528708828912082254e+02
9.962500000000000000e+01  2.443546875000000000e+04  1.634817847508170985e+02
9.975000000000000000e+01  2.222446153846153902e+04  1.547062878585048793e+02
9.987500000000000000e+01  2.446855072463768374e+04  1.575536968839714405e+02
1.000000000000000000e+02  2.270739130434782419e+04  1.517777451800726283e+02
1.001250000000000000e+02  2.363869565217391573e+04  1.548589210999301997e+02
1.002500000000000000e+02  2.271700000000000000e+04  1.507215976560758008e+02
1.003750000000000000e+02  2.432647887323943723e+04  1.548672089573388746e+02
1.005000000000000000e+02  2.330808219178082072e+04  1.494998856198150179e+02
1.006250000000000000e+02  2.346842105263157646e+04  1.470226206048888287e+02
1.007500000000000000e+02  2.451435897435897641e+04  1.483241913722087020e+02
1.008750000000000000e+02  2.240328125000000000e+04  1.565362222208888454e+02
1.010000000000000000e+02  2.536734375000000000e+04  1.665699019227738518e+02
1.011250000000000000e+02  2.227647058823529369e+04  1.514320339282741656e+02
1.012500000000000000e+02  2.487739130434782419e+04  1.588645121079890146e+02
1.013750000000000000e+02  2.327246376811594018e+04  1.536546317287956924e+02
1.015000000000000000e+02  2.449188405797101586e+04  1.576288009831670252e+02
1.016250000000000000e+02  2.412869565217391573e+04  1.564557026557669701e+02
1.017500000000000000e+02  2.417464788732394300e+04  1.543831593435985212e+02
1.018750000000000000e+02  2.398436619718309885e+04  1.537743744015071172e+02
1.020000000000000000e+02  2.370946666666666715e+04  1.487576403266587022e+02
1.021250000000000000e+02  2.530189873417721537e+04  1.497311054580043503e+02
1.022500000000000000e+02  2.300156250000000000e+04  1.586126066376030508e+02
1.023750000000000000e+02  2.439294117647059102e+04  1.584625527461847128e+02
1.025000000000000000e+02  3.093794117647059102e+04  1.784597451047080199e+02
1.026250000000000000e+02  7.332500000000000000e+03  8.688015748550344597e+01
1.027500000000000000e+02  2.923220588235294417e+04  1.734703912591385517e+02
1.028750000000000000e+02  2.408507246376811599e+04  1.563142075595886240e+02
1.030000000000000000e+02  2.314768115942029181e+04  1.532421443318119429e+02
1.031250000000000000e+02  2.291800000000000000e+04  1.513869214958808698e+02
1.032500000000000000e+02  2.343225352112676046e+04  1.519941504841307562e+02
1.033750000000000000e+02  2.325246575342465803e+04  1.493214149713206496e+02
1.035000000000000000e+02  2.326800000000000000e+04  1.426867197744765861e+02
1.036250000000000000e+02  2.224014925373134247e+04  1.524335161054045784e+02
1.037500000000000000e+02  2.359000000000000000e+04  1.569913012135271799e+02
1.038750000000000000e+02  2.242161764705882524e+04  1.519245766478201460e+02
1.040000000000000000e+02  2.374235294117647209e+04  1.563350806423381414e+02
1.041250000000000000e+02  2.266764705882352791e+04  1.527558266009962153e+02
1.042500000000000000e+02  2.448558823529411893e+04  1.587631966015918579e+02
1.043750000000000000e+02  2.335057971014492796e+04  1.539122929100943509e+02
1.045000000000000000e+02  2.463100000000000000e+04  1.569426646900070921e+02
1.046250000000000000e+02  2.449200000000000000e+04  1.564992012759170734e+02
1.047500000000000000e+02  2.384506849315068393e+04  1.512122156821807835e+02
1.048750000000000000e+02  2.503609756097561331e+04  1.461926072197595374e+02
1.050000000000000000e+02  2.392250000000000000e+04  1.569270624882033474e+02
1.051250000000000000e+02  2.586552238805970410e+04  1.643888077301129442e+02
1.052500000000000000e+02  2.436731343283582100e+04  1.595568461979442532e+02
1.053750000000000000e+02  2.560661764705882524e+04  1.623568706898713572e+02
1.055000000000000000e+02  2.492411764705882524e+04  1.601785876164346973e+02
1.056250000000000000e+02  2.597000000000000000e+04  1.635048119457398741e+02
1.057500000000000000e+02  2.484485294117647209e+04  1.599236815172618549e+02
1.058750000000000000e+02  2.535826086956521613e+04  1.603925556148425358e+02
1.060000000000000000e+02  2.577774647887323954e+04  1.594198219389863596e+02
1.061250000000000000e+02  2.502835616438356010e+04  1.549186676365557105e+02
1.062500000000000000e+02  2.592416666666666424e+04  1.469811968321874360e+02
1.063750000000000000e+02  2.410089552238806209e+04  1.586821984282338178e+02
1.065000000000000000e+02  2.618417910447761460e+04  1.653983223449647255e+02
1.066250000000000000e+02  2.420955223880597259e+04  1.590394983661089157e+02
1.067500000000000000e+02  2.517014705882352791e+04  1.609672187177566514e+02
1.068750000000000000e+02  2.410820895522388309e+04  1.587062727115570056e+02
1.070000000000000000e+02  2.470279411764705583e+04  1.594658172957864508e+02
1.071250000000000000e+02  2.394926470588235316e+04  1.570148236450643537e+02
1.072500000000000000e+02  2.372898550724637607e+04  1.551543871372353465e+02
1.073750000000000000e+02  2.339458333333333212e+04  1.508135729843182844e+02
1.075000000000000000e+02  2.317863013698630311e+04  1.490841497041203354e+02
1.076250000000000000e+02  2.415416666666666424e+04  1.418748470385861538e+02
1.077500000000000000e+02  2.262253731343283653e+04  1.537383710899057974e+02
1.078750000000000000e+02  2.375716417910447490e+04  1.575465575601840555e+02
1.080000000000000000e+02  2.260059701492537351e+04  1.536638020011362755e+02
1.081250000000000000e+02  2.383552238805970410e+04  1.578061614276831222e+02
1.082500000000000000e+02  2.303823529411764684e+04  1.539994495114414121e+02
1.083750000000000000e+02  2.356283582089552510e+04  1.569008864572946607e+02
1.085000000000000000e+02  2.295176470588235316e+04  1.537101708053066318e+02
1.086250000000000000e+02  2.330100000000000000e+04  1.526466507985026055e+02
1.087500000000000000e+02  2.352583333333333212e+04  1.512360339435115009e+02
1.088750000000000000e+02  2.377315068493150829e+04  1.509840120332624736e+02
1.090000000000000000e+02  2.376278481012658085e+04  1.451055895210062090e+02
1.091250000000000000e+02  2.379708333333333212e+04  1.521054017474091609e+02
1.092500000000000000e+02  2.422104477611940092e+04  1.590772427755773606e+02
1.093750000000000000e+02  2.359106060606060419e+04  1.581797137907157946e+02
1.095000000000000000e+02  2.505073529411764684e+04  1.605849358635410056e+02
1.096250000000000000e+02  2.469641791044775891e+04  1.606307183188570207e+02
1.097500000000000000e+02  2.430567164179104293e+04  1.593549035875383026e+02
1.098750000000000000e+02  2.401101449275362393e+04  1.560737012120873146e+02
1.100000000000000000e+02  2.474056338028169193e+04  1.561797193656167337e+02
1.101250000000000000e+02  2.472380281690140691e+04  1.561268082105551684e+02
1.102500000000000000e+02  2.473972602739726062e+04  1.540228066157028479e+02
1.103750000000000000e+02  2.531636363636363603e+04  1.517065457818411289e+02
1.105000000000000000e+02  2.399945205479451761e+04  1.517009334289925278e+02
1.106250000000000000e+02  2.504641791044775891e+04  1.617649508064804138e+02
1.107500000000000000e+02  2.381253731343283653e+04  1.577300552446081667e+02
1.108750000000000000e+02  2.495447761194029590e+04  1.614677747450916456e+02
1.110000000000000000e+02  2.402149253731343197e+04  1.584205850115511112e+02
1.111250000000000000e+02  2.440735294117647209e+04  1.585093570202585340e+02
1.112500000000000000e+02  2.361600000000000000e+04  1.536749816983883647e+02
1.113750000000000000e+02  2.396900000000000000e+04  1.548192494491560183e+02
1.115000000000000000e+02  2.403527777777777737e+04  1.528647479729696101e+02
1.116250000000000000e+02  2.358014084507042207e+04  1.524730342889544943e+02
1.117500000000000000e+02  2.381773333333333358e+04  1.490968961596600195e+02
1.118750000000000000e+02  2.328513157894736651e+04  1.464473684210526301e+02
1.120000000000000000e+02  2.417015151515151592e+04  1.601093663179529756e+02
1.121250000000000000e+02  2.394522388059701552e+04  1.581688910127583654e+02
1.122500000000000000e+02  2.126641791044775891e+04  1.490592015880930319e+02
1.123750000000000000e+02  2.219514705882352791e+04  1.511553687492776703e+02
1.125000000000000000e+02  2.342768115942029181e+04  1.541661855609925169e+02
1.126250000000000000e+02  2.232500000000000000e+04  1.494155279748393355e+02
1.127500000000000000e+02  2.233101449275362393e+04  1.505146251496941829e+02
1.128750000000000000e+02  2.232211267605633839e+04  1.483499805287228526e+02
1.130000000000000000e+02  2.243888888888888687e+04  1.477010034487006465e+02
1.131250000000000000e+02  2.240756756756757022e+04  1.455896551924291202e+02
1.132500000000000000e+02  2.138684210526316019e+04  1.403510142543190682e+02
1.133750000000000000e+02  2.276985074626865753e+04  1.542381155942710791e+02
1.135000000000000000e+02  2.121318181818181984e+04  1.499960972862358233e+02
1.136250000000000000e+02  2.254205882352940898e+04  1.523320732926366361e+02
1.137500000000000000e+02  2.207434782608695605e+04  1.496471379964314679e+02
1.138750000000000000e+02  2.262826086956521613e+04  1.515130577846974234e+02
1.140000000000000000e+02  2.136521739130434798e+04  1.472238371428430810e+02
1.141250000000000000e+02  2.229000000000000000e+04  1.492983589996889293e+02
1.142500000000000000e+02  2.180400000000000000e+04  1.476617756902577696e+02
1.143750000000000000e+02  2.186563380281690115e+04  1.468252945835212415e+02
1.145000000000000000e+02  2.208547945205479482e+04  1.455261385759261543e+02
1.146250000000000000e+02  2.188217948717948457e+04  1.401351254537216562e+02
1.147500000000000000e+02  2.251136363636363603e+04  1.545175999853549342e+02
1.148750000000000000e+02  2.145552238805970410e+04  1.497204642671164265e+02
1.150000000000000000e+02  2.203681159420289987e+04  1.495198504389243226e+02
1.151250000000000000e+02  2.160159420289855188e+04  1.480360117861503966e+02
1.152500000000000000e+02  2.191411764705882524e+04  1.501953744927956791e+02
1.153750000000000000e+02  2.143724637681159220e+04  1.474717976662328454e+02
1.155000000000000000e+02  2.198811594202898414e+04  1.493545589830284257e+02
1.156250000000000000e+02  2.158600000000000000e+04  1.469217478796110754e+02
1.157500000000000000e+02  2.170985915492957793e+04  1.463013550544752661e+02
1.158750000000000000e+02  2.211621621621621671e+04  1.446400534754938292e+02
1.160000000000000000e+02  2.170818181818181984e+04  1.404802859614175645e+02
1.161250000000000000e+02  2.227149253731343197e+04  1.525408913912819457e+02
1.162500000000000000e+02  2.102882352941176578e+04  1.471302767587295364e+02
1.163750000000000000e+02  2.238044117647059102e+04  1.517850106116107440e+02
1.165000000000000000e+02  2.125735294117647209e+04  1.479275809447049994e+02
1.166250000000000000e+02  2.168478260869565202e+04  1.483207835079624886e+02
1.167500000000000000e+02  2.181565217391304395e+04  1.487676747347982769e+02
1.168750000000000000e+02  2.205000000000000000e+04  1.484924240491749856e+02
1.170000000000000000e+02  2.441884057971014408e+04  1.573935729945660569e+02
1.171250000000000000e+02  2.445464788732394300e+04  1.552746477276284054e+02
1.172500000000000000e+02  1.855583333333333212e+04  1.343145320451905604e+02
1.173750000000000000e+02  2.414025316455696520e+04  1.462535392417792934e+02
1.175000000000000000e+02  1.359338235294117658e+04  1.182928050063188721e+02
1.176250000000000000e+02  1.852179104477611691e+04  1.391083210025703636e+02
1.177500000000000000e+02  2.482159420289855188e+04  1.586862547677520752e+02
1.178750000000000000e+02  2.184411764705882524e+04  1.499552989910717713e+02
1.180000000000000000e+02  2.208602941176470631e+04  1.507833495851273540e+02
1.181250000000000000e+02  2.190086956521739194e+04  1.490579534005470919e+02
1.182500000000000000e+02  2.222144927536231626e+04  1.501449275362319042e+02
1.183750000000000000e+02  2.184700000000000000e+04  1.478073069912309734e+02
1.185000000000000000e+02  2.200800000000000000e+04  1.483509352852215670e+02
1.186250000000000000e+02  2.177479452054794820e+04  1.444989271628352299e+02
1.187500000000000000e+02  2.187587500000000000e+04  1.383524145976498687e+02
1.188750000000000000e+02  2.282731343283582100e+04  1.544326129570883097e+02
1.190000000000000000e+02  2.172367647058823422e+04  1.495413258316505960e+02
1.191250000000000000e+02  2.244426470588235316e+04  1.520012833446096465e+02
1.192500000000000000e+02  2.158779411764705583e+04  1.490728990754333267e+02
1.193750000000000000e+02  2.293869565217391573e+04  1.525488135538856795e+02
1.195000000000000000e+02  2.227441176470588107e+04  1.514250359831271453e+02
1.196250000000000000e+02  2.274485294117647209e+04  1.530157482226984769e+02
1.197500000000000000e+02  2.194300000000000000e+04  1.481316981607920411e+02
1.198750000000000000e+02  2.268591549295774530e+04  1.495539887680606626e+02
1.200000000000000000e+02  2.259082191780821813e+04  1.471816292068425582e+02
1.201250000000000000e+02  2.279487179487179310e+04  1.430277463507238451e+02
1.202500000000000000e+02  2.334000000000000000e+04  1.527743433957416812e+02
1.203750000000000000e+02  2.202179104477611691e+04  1.516833589754149614e+02
1.205000000000000000e+02  2.361573529411764684e+04  1.559176569345006556e+02
1.206250000000000000e+02  2.272632352941176578e+04  1.529534073163739265e+02
1.207500000000000000e+02  2.335220588235294417e+04  1.550452690897985235e+02
1.208750000000000000e+02  2.321565217391304395e+04  1.534669700654548308e+02
1.210000000000000000e+02  2.462250000000000000e+04  1.592064420068188895e+02
1.211250000000000000e+02  2.404253521126760461e+04  1.539607351072697270e+02
1.212500000000000000e+02  2.479971830985915585e+04  1.563663215103496498e+02
1.213750000000000000e+02  2.405958333333333212e+04  1.529420203020545728e+02
1.215000000000000000e+02  2.437000000000000000e+04  1.488440306312129167e+02
1.216250000000000000e+02  2.545830985915492784e+04  1.584289812965411670e+02
1.217500000000000000e+02  2.498073529411764684e+04  1.603604153236333048e+02
1.218750000000000000e+02  2.582059701492537351e+04  1.642459836645086000e+02
1.220000000000000000e+02  2.520308823529411893e+04  1.610725163903891257e+02
1.221250000000000000e+02  2.596897058823529369e+04  1.635015713711352987e+02
1.222500000000000000e+02  2.569308823529411893e+04  1.626307698470313028e+02
1.223750000000000000e+02  2.610901408450704184e+04  1.604408971919800138e+02
1.225000000000000000e+02  2.612724637681159220e+04  1.628063331735073120e+02
1.226250000000000000e+02  2.657830985915492784e+04  1.618763956442460028e+02
1.227500000000000000e+02  2.710438356164383731e+04  1.612157088659102442e+02
1.228750000000000000e+02  2.695851351351351332e+04  1.596912538833517488e+02
1.230000000000000000e+02  2.786189189189189347e+04  1.623448295496944809e+02
1.231250000000000000e+02  2.692805970149253699e+04  1.677313140650167611e+02
1.232500000000000000e+02  2.791850746268656803e+04  1.707881432839790250e+02
1.233750000000000000e+02  2.742250000000000000e+04  1.680150115842244247e+02
1.235000000000000000e+02  2.817808823529411893e+04  1.703139910175678153e+02
1.236250000000000000e+02  2.783800000000000000e+04  1.668472355180031172e+02
1.237500000000000000e+02  2.837739130434782419e+04  1.696722070493295291e+02
1.238750000000000000e+02  2.769666666666666788e+04  1.676247822753253729e+02
1.240000000000000000e+02  2.854736111111111313e+04  1.665964551184229094e+02
1.241250000000000000e+02  2.886366197183098484e+04  1.686924169058096936e+02
1.242500000000000000e+02  2.802876712328767098e+04  1.639417578935725430e+02
1.243750000000000000e+02  2.834906666666666570e+04  1.626626229005572384e+02
1.245000000000000000e+02  2.676507462686566942e+04  1.672229374343962718e+02
1.246250000000000000e+02  2.901500000000000000e+04  1.728247156888770348e+02
1.247500000000000000e+02  2.740808823529411893e+04  1.679708560361250420e+02
1.248750000000000000e+02  2.851800000000000000e+04  1.688727331454074658e+02
1.250000000000000000e+02  2.725161764705882524e+04  1.674907036618713221e+02
1.251250000000000000e+02  2.743112676056338023e+04  1.644529503004652042e+02
1.252500000000000000e+02  2.686376811594203173e+04  1.650851237653982082e+02
1.253750000000000000e+02  2.747500000000000000e+04  1.657558445425077593e+02
1.255000000000000000e+02  2.706535211267605700e+04  1.633528388802716904e+02
1.256250000000000000e+02  2.681958904109588912e+04  1.603664994598187832e+02
1.257500000000000000e+02  2.758093333333333430e+04  1.604437734673566069e+02
1.258750000000000000e+02  2.611104477611940092e+04  1.651671760209988236e+02
1.260000000000000000e+02  2.666492753623188401e+04  1.644730244185795414e+02
1.261250000000000000e+02  2.544088235294117476e+04  1.618306015517952687e+02
1.262500000000000000e+02  2.617900000000000000e+04  1.617992583419343191e+02
1.263750000000000000e+02  2.470073529411764684e+04  1.594591719176119398e+02
1.265000000000000000e+02  2.583600000000000000e+04  1.607358080827044660e+02
1.266250000000000000e+02  2.528014492753623199e+04  1.601453210041726436e+02
1.267500000000000000e+02  2.482700000000000000e+04  1.575658592462212368e+02
1.268750000000000000e+02  2.466169014084507216e+04  1.559305691401864635e+02
1.270000000000000000e+02  2.432694444444444525e+04  1.537894534344092108e+02
1.271250000000000000e+02  2.461789473684210316e+04  1.505801339197901427e+02
1.272500000000000000e+02  2.377800000000000000e+04  1.542011673107567731e+02
1.273750000000000000e+02  2.430671641791044749e+04  1.593583284755877116e+02
1.275000000000000000e+02  2.325235294117647209e+04  1.547134308156227291e+02
1.276250000000000000e+02  2.395400000000000000e+04  1.547707982792619816e+02
1.277500000000000000e+02  2.303617647058823422e+04  1.539925682384197216e+02
1.278750000000000000e+02  2.356971014492753602e+04  1.546327913058156582e+02
1.280000000000000000e+02  2.287376811594203173e+04  1.523327673275855716e+02
1.281250000000000000e+02  2.284267605633803032e+04  1.500698111698639252e+02
1.282500000000000000e+02  2.280800000000000000e+04  1.510231770292228930e+02
1.283750000000000000e+02  2.252657534246575233e+04  1.469721935294481909e+02
1.285000000000000000e+02  2.328697368421052670e+04  1.464531610903356125e+02
1.286250000000000000e+02  2.191608695652173992e+04  1.491097294114873648e+02
1.287500000000000000e+02  2.329867647058823422e+04  1.548674648236344353e+02
1.288750000000000000e+02  2.198720588235294417e+04  1.504456327325738414e+02
1.290000000000000000e+02  2.278550724637681196e+04  1.520385871714083237e+02
1.291250000000000000e+02  2.237323529411764684e+04  1.517605733591487933e+02
1.292500000000000000e+02  2.248000000000000000e+04  1.499333185119305085e+02
1.293750000000000000e+02  2.216463768115942003e+04  1.499528736444210324e+02
1.295000000000000000e+02  2.238173913043478387e+04  1.506854742877051478e+02
1.296250000000000000e+02  2.255166666666666788e+04  1.480717106049683025e+02
1.297500000000000000e+02  2.218125000000000000e+04  1.468506185436978910e+02
1.298750000000000000e+02  2.272666666666666788e+04  1.428136075299776735e+02
1.300000000000000000e+02  2.186367647058823422e+04  1.500224175866617315e+02
1.301250000000000000e+02  2.285088235294117476e+04  1.533719893853753433e+02
1.302500000000000000e+02  2.211279411764705583e+04  1.508746844743176609e+02
1.303750000000000000e+02  2.237768115942029181e+04  1.506718134858741109e+02
1.305000000000000000e+02  2.191101449275362393e+04  1.490924727390058706e+02
1.306250000000000000e+02  2.256985294117647209e+04  1.524259562716557639e+02
1.307500000000000000e+02  2.194500000000000000e+04  1.481384487565601660e+02
1.308750000000000000e+02  2.189300000000000000e+04  1.479628331710365785e+02
1.310000000000000000e+02  2.152791666666666788e+04  1.446717629030678438e+02
1.311250000000000000e+02  2.147816901408450576e+04  1.455185884736067692e+02
1.312500000000000000e+02  2.132873417721518854e+04  1.374731915133791347e+02
1.313750000000000000e+02  2.053298507462686757e+04  1.464662844002949100e+02
1.315000000000000000e+02  2.152911764705882524e+04  1.488701682326562548e+02
1.316250000000000000e+02  2.055323529411764684e+04  1.454570115688235603e+02
1.317500000000000000e+02  2.085300000000000000e+04  1.559759596861003388e+02
1.318750000000000000e+02  2.166111111111111313e+04  1.835621467743147264e+02
1.320000000000000000e+02  5.600000000000000000e+03  1.252198067399882291e+02
