# DMC at SINQ, PSI: Sample name = Unknown, wavelength = 2.450 AA, T = 0.0 K
# Filelist='dmc:2021:570-573'
#   0.000   0.125 132.000     560., sample="Unknown"
0.000000000000000000e+00  1.114400000000000000e+05  2.792991228056400359e+03
1.250000000000000000e-01  1.140300000000000000e+05  1.997761246996246882e+03
2.500000000000000000e-01  1.059520000000000000e+05  1.217919537572166519e+03
3.750000000000000000e-01  1.058400000000000000e+05  1.217275646679912825e+03
5.000000000000000000e-01  1.052100000000000000e+05  9.045993588324059829e+02
6.250000000000000000e-01  1.052644444444444525e+05  9.048333862044014495e+02
7.500000000000000000e-01  1.034815384615384683e+05  7.464638531259693082e+02
8.750000000000000000e-01  1.047750000000000000e+05  7.237920972212945117e+02
1.000000000000000000e+00  1.040650000000000000e+05  7.213355668480517124e+02
1.125000000000000000e+00  1.033130000000000000e+05  6.013281134289331931e+02
1.250000000000000000e+00  1.035105555555555475e+05  6.344612276433573470e+02
1.375000000000000000e+00  1.042533333333333285e+05  5.514274405778354549e+02
1.500000000000000000e+00  1.044633333333333285e+05  5.900941544458063390e+02
1.625000000000000000e+00  1.022440740740740730e+05  5.148565130994584251e+02
1.750000000000000000e+00  1.052041666666666715e+05  5.539363556502778465e+02
1.875000000000000000e+00  1.015880645161290304e+05  4.789492705350930919e+02
2.000000000000000000e+00  1.053300000000000000e+05  5.131520242579190381e+02
2.125000000000000000e+00  1.015600000000000000e+05  4.506883623969005725e+02
2.250000000000000000e+00  1.023520000000000000e+05  4.524422615096870004e+02
2.375000000000000000e+00  1.016872972972972930e+05  4.386130108252114610e+02
2.500000000000000000e+00  1.018727500000000000e+05  4.222289811228025656e+02
2.625000000000000000e+00  1.013931578947368398e+05  4.321768964279490319e+02
2.750000000000000000e+00  1.009925000000000000e+05  4.008364833241060978e+02
2.875000000000000000e+00  1.010400000000000000e+05  4.103656905736638123e+02
3.000000000000000000e+00  9.991829787234042305e+04  3.857648068355218243e+02
3.125000000000000000e+00  1.003741666666666715e+05  3.825950771449569743e+02
3.250000000000000000e+00  9.902812500000000000e+04  3.800210726065069480e+02
3.375000000000000000e+00  9.969211538461539021e+04  3.663344435842923303e+02
3.500000000000000000e+00  9.869500000000000000e+04  3.512388788275011393e+02
3.625000000000000000e+00  9.862140350877192395e+04  3.480143737103658168e+02
3.750000000000000000e+00  9.876877192982456472e+04  3.482742928665771842e+02
3.875000000000000000e+00  9.810672131147541222e+04  3.355316430266822181e+02
4.000000000000000000e+00  9.797200000000000000e+04  3.380838160377788313e+02
4.125000000000000000e+00  9.685812500000000000e+04  3.254820643580072783e+02
4.250000000000000000e+00  9.759859375000000000e+04  3.267238312613000630e+02
4.375000000000000000e+00  9.664953846153845370e+04  3.226207035253554523e+02
4.500000000000000000e+00  9.690625000000000000e+04  3.069436588728006541e+02
4.625000000000000000e+00  9.620367647058822331e+04  3.146954025192964650e+02
4.750000000000000000e+00  9.625636363636363239e+04  2.958137676376252898e+02
4.875000000000000000e+00  9.552239436619718617e+04  3.068827276502435666e+02
5.000000000000000000e+00  9.538638554216867487e+04  2.836306564044715515e+02
5.125000000000000000e+00  9.451842105263158737e+04  2.950532840746113266e+02
5.250000000000000000e+00  9.355756097560975468e+04  2.826061050100212242e+02
5.375000000000000000e+00  9.424512820512820326e+04  2.908246227707180083e+02
5.500000000000000000e+00  9.402070588235295145e+04  2.782603396263946820e+02
5.625000000000000000e+00  9.410644444444443798e+04  2.705437140917672423e+02
5.750000000000000000e+00  9.218267441860464169e+04  2.739204435789562808e+02
5.875000000000000000e+00  9.323172043010753987e+04  2.649045360633951987e+02
6.000000000000000000e+00  9.268241379310344928e+04  2.730788477251777522e+02
6.125000000000000000e+00  9.215463917525773286e+04  2.578824303019370632e+02
6.250000000000000000e+00  9.192489361702128372e+04  2.616385063645552691e+02
6.375000000000000000e+00  9.243534653465346491e+04  2.531088729354834754e+02
6.500000000000000000e+00  9.167428571428572468e+04  2.558937917438819625e+02
6.625000000000000000e+00  9.152333333333332848e+04  2.470132699989123068e+02
6.750000000000000000e+00  9.094784313725489483e+04  2.498303153477246781e+02
6.875000000000000000e+00  9.086963302752294112e+04  2.415712008157157129e+02
7.000000000000000000e+00  8.842650943396225921e+04  2.416502942695107095e+02
7.125000000000000000e+00  8.961862385321101465e+04  2.399025733008590464e+02
7.250000000000000000e+00  8.842178217821782164e+04  2.475528696901616286e+02
7.375000000000000000e+00  8.733520833333332848e+04  2.523527743914370660e+02
7.500000000000000000e+00  8.877902173913043225e+04  2.599023964319634956e+02
7.625000000000000000e+00  8.728322580645162088e+04  2.563143610535223615e+02
7.750000000000000000e+00  8.655500000000000000e+04  2.623939179588928710e+02
7.875000000000000000e+00  8.623222222222221899e+04  2.589778101939228350e+02
8.000000000000000000e+00  8.576709302325581666e+04  2.642166242949388675e+02
8.125000000000000000e+00  8.609034482758620288e+04  2.631883233341425807e+02
8.250000000000000000e+00  8.530988505747127056e+04  2.619926285271459392e+02
8.375000000000000000e+00  8.622950000000000000e+04  2.746831128773663409e+02
8.500000000000000000e+00  8.511588235294117476e+04  2.647554202012709084e+02
8.625000000000000000e+00  8.426862500000000000e+04  2.715419799496939959e+02
8.750000000000000000e+00  8.387686746987952210e+04  2.659690335016956624e+02
8.875000000000000000e+00  8.458181818181819108e+04  2.772950810661290575e+02
9.000000000000000000e+00  8.272292682926829730e+04  2.657388429626565767e+02
9.125000000000000000e+00  8.390395348837209167e+04  2.613310460509242716e+02
9.250000000000000000e+00  8.287907894736841263e+04  2.762896917500054315e+02
9.375000000000000000e+00  8.283252873563217872e+04  2.581605357158281322e+02
9.500000000000000000e+00  8.263943661971831170e+04  2.854391369323415120e+02
9.625000000000000000e+00  8.185166666666667152e+04  2.611699106371601147e+02
9.750000000000000000e+00  8.218567567567566584e+04  2.788246881469317486e+02
9.875000000000000000e+00  8.103234567901234550e+04  2.646279521440178542e+02
1.000000000000000000e+01  8.137948717948717240e+04  2.702459492939647703e+02
1.012500000000000000e+01  8.030289473684210679e+04  2.719617482676113696e+02
1.025000000000000000e+01  8.087909090909091174e+04  2.711576041363983904e+02
1.037500000000000000e+01  7.981213333333333139e+04  2.729309884282919825e+02
1.050000000000000000e+01  8.008426829268292931e+04  2.614662870701336033e+02
1.062500000000000000e+01  7.967959999999999127e+04  2.727042842836662544e+02
1.075000000000000000e+01  7.939063291139240027e+04  2.652284495068658430e+02
1.087500000000000000e+01  7.881440000000000873e+04  2.712196649704196147e+02
1.100000000000000000e+01  7.814818181818182347e+04  2.665404315538124251e+02
1.112500000000000000e+01  7.909447368421053397e+04  2.699077122466008518e+02
1.125000000000000000e+01  7.738310810810810653e+04  2.705554238960323232e+02
1.137500000000000000e+01  7.947175675675676030e+04  2.741823957172604764e+02
1.150000000000000000e+01  7.697973684210525244e+04  2.662750254843211906e+02
1.162500000000000000e+01  7.765743243243242614e+04  2.710345612316456254e+02
1.175000000000000000e+01  7.654826666666666279e+04  2.672920666403866221e+02
1.187500000000000000e+01  7.724769230769229762e+04  2.632961299962570934e+02
1.200000000000000000e+01  7.705945205479451397e+04  2.718319798294934913e+02
1.212500000000000000e+01  7.659400000000000000e+04  2.588817297531828672e+02
1.225000000000000000e+01  7.657600000000000000e+04  2.767236889028476412e+02
1.237500000000000000e+01  7.646746835443038435e+04  2.602997975755066022e+02
1.250000000000000000e+01  7.561800000000000000e+04  2.749872724327436799e+02
1.262500000000000000e+01  7.531066666666665697e+04  2.651225293247549644e+02
1.275000000000000000e+01  7.577694444444445253e+04  2.714259186610365759e+02
1.287500000000000000e+01  7.461909090909091174e+04  2.604525622643836300e+02
1.300000000000000000e+01  7.494800000000000000e+04  2.737663237142216417e+02
1.312500000000000000e+01  7.441466666666665697e+04  2.635406778637576508e+02
1.325000000000000000e+01  7.513519999999999709e+04  2.648134941174008077e+02
1.337500000000000000e+01  7.406189189189189347e+04  2.646857502477647017e+02
1.350000000000000000e+01  7.446454545454545587e+04  2.601827075774138507e+02
1.362500000000000000e+01  7.480260869565217581e+04  2.754754153710454716e+02
1.375000000000000000e+01  7.378987179487179674e+04  2.573357336552982133e+02
1.387500000000000000e+01  7.531100000000000000e+04  2.744284970625317328e+02
1.400000000000000000e+01  7.463418918918918644e+04  2.657064332914735019e+02
1.412500000000000000e+01  7.766352112676056277e+04  2.767122489455870209e+02
1.425000000000000000e+01  7.628342105263158737e+04  2.650680020416858724e+02
1.437500000000000000e+01  7.932521739130433707e+04  2.836809091621472021e+02
1.450000000000000000e+01  9.258824324324323970e+04  2.959450512142466323e+02
1.462500000000000000e+01  7.112368421052632038e+04  2.559465891737870038e+02
1.475000000000000000e+01  7.652959999999999127e+04  2.672594744189000266e+02
1.487500000000000000e+01  7.664232876712328289e+04  2.710952674306006998e+02
1.500000000000000000e+01  7.632957746478873014e+04  2.743255602262641446e+02
1.512500000000000000e+01  7.402878378378377238e+04  2.646265820048682826e+02
1.525000000000000000e+01  7.549300000000000000e+04  2.747598951812290693e+02
1.537500000000000000e+01  7.191081081081081356e+04  2.608136115239624360e+02
1.550000000000000000e+01  7.310676470588236407e+04  2.743300269161582037e+02
1.562500000000000000e+01  7.222986842105264077e+04  2.579292740031880271e+02
1.575000000000000000e+01  7.161926470588234952e+04  2.715247938362536502e+02
1.587500000000000000e+01  6.991973333333333721e+04  2.554572719218965062e+02
1.600000000000000000e+01  6.980891891891892010e+04  2.569736637132696160e+02
1.612500000000000000e+01  6.957355263157894660e+04  2.531420623673833461e+02
1.625000000000000000e+01  7.036380281690139964e+04  2.633870979008027007e+02
1.637500000000000000e+01  7.065397260273972643e+04  2.602890406597224455e+02
1.650000000000000000e+01  6.959676056338027411e+04  2.619475605901061499e+02
1.662500000000000000e+01  6.971904109589041036e+04  2.585611630223235125e+02
1.675000000000000000e+01  6.986788732394366525e+04  2.624572966653855133e+02
1.687500000000000000e+01  7.029944444444445253e+04  2.614319836951199250e+02
1.700000000000000000e+01  6.851816901408450212e+04  2.599098389443603310e+02
1.712500000000000000e+01  6.963000000000000000e+04  2.638749703931769091e+02
1.725000000000000000e+01  6.820625000000000000e+04  2.575104501655116565e+02
1.737500000000000000e+01  6.931150684931506112e+04  2.578043614053439114e+02
1.750000000000000000e+01  6.805959999999999127e+04  2.520362936827419276e+02
1.762500000000000000e+01  6.849000000000000000e+04  2.617059418507726605e+02
1.775000000000000000e+01  6.823226666666666279e+04  2.523557982073899097e+02
1.787500000000000000e+01  6.820500000000000000e+04  2.611608699633235915e+02
1.800000000000000000e+01  6.857027397260273574e+04  2.564221470699737324e+02
1.812500000000000000e+01  6.721800000000000000e+04  2.592643438654841361e+02
1.825000000000000000e+01  6.867486111111110949e+04  2.583935488363571835e+02
1.837500000000000000e+01  6.647100000000000000e+04  2.578197044447921940e+02
1.850000000000000000e+01  6.860800000000000000e+04  2.619312886999184116e+02
1.862500000000000000e+01  6.648619718309860036e+04  2.560268967719223383e+02
1.875000000000000000e+01  6.727454545454545587e+04  2.473028056572557887e+02
1.887500000000000000e+01  6.664100000000000000e+04  2.581491816760223514e+02
1.900000000000000000e+01  6.642906666666666570e+04  2.489989201226025557e+02
1.912500000000000000e+01  6.668000000000000000e+04  2.582247083452704715e+02
1.925000000000000000e+01  6.616166666666665697e+04  2.536214553080882297e+02
1.937500000000000000e+01  6.678800000000000000e+04  2.584337439267558238e+02
1.950000000000000000e+01  6.613178082191781141e+04  2.518214375397351148e+02
1.962500000000000000e+01  6.663797101449275215e+04  2.600071897281976590e+02
1.975000000000000000e+01  6.471647887323942996e+04  2.525964749769866557e+02
1.987500000000000000e+01  6.606400000000000000e+04  2.570291812226774937e+02
2.000000000000000000e+01  6.509700000000000728e+04  2.551411374122174038e+02
2.012500000000000000e+01  6.585600000000000000e+04  2.479225685572009468e+02
2.025000000000000000e+01  6.435859154929577926e+04  2.518970672981132566e+02
2.037500000000000000e+01  6.522133333333333576e+04  2.467250381385003095e+02
2.050000000000000000e+01  6.508200000000000000e+04  2.551117402237694023e+02
2.062500000000000000e+01  6.397408450704225106e+04  2.511434670925785611e+02
2.075000000000000000e+01  6.453211267605633475e+04  2.522364162459872432e+02
2.087500000000000000e+01  6.458472222222222626e+04  2.505807298267243652e+02
2.100000000000000000e+01  6.443855072463768010e+04  2.556803527143319457e+02
2.112500000000000000e+01  6.382225352112676046e+04  2.508452681274972065e+02
2.125000000000000000e+01  6.432797101449275215e+04  2.554608785107523943e+02
2.137500000000000000e+01  6.302267605633803032e+04  2.492689967316450463e+02
2.150000000000000000e+01  6.401888888888889051e+04  2.494806333560845246e+02
2.162500000000000000e+01  6.346973684210526699e+04  2.417828946473350413e+02
2.175000000000000000e+01  6.300000000000000000e+04  2.528102914801153247e+02
2.187500000000000000e+01  6.318351351351352059e+04  2.444753330271358891e+02
2.200000000000000000e+01  6.258811594202898414e+04  2.519825194058436466e+02
2.212500000000000000e+01  6.293194444444444525e+04  2.473536635599788553e+02
2.225000000000000000e+01  6.253200000000000000e+04  2.500639918100964678e+02
2.237500000000000000e+01  6.269042253521126986e+04  2.486110593628775689e+02
2.250000000000000000e+01  6.204434782608695241e+04  2.508855142746225511e+02
2.262500000000000000e+01  6.229507042253520922e+04  2.478258966784370045e+02
2.275000000000000000e+01  6.132000000000000000e+04  2.494167108518872169e+02
2.287500000000000000e+01  6.337013698630136787e+04  2.465073726714576026e+02
2.300000000000000000e+01  6.150763888888889051e+04  2.445385314509709929e+02
2.312500000000000000e+01  6.204684931506849534e+04  2.439200254084751407e+02
2.325000000000000000e+01  6.176333333333333576e+04  2.450462919229450165e+02
2.337500000000000000e+01  6.189478873239436507e+04  2.470284014938650046e+02
2.350000000000000000e+01  6.204000000000000000e+04  2.490783009416918219e+02
2.362500000000000000e+01  6.123100000000000000e+04  2.474489846412791394e+02
2.375000000000000000e+01  6.163943661971831170e+04  2.465183067047300369e+02
2.387500000000000000e+01  6.026485294117646845e+04  2.490729784940890852e+02
2.400000000000000000e+01  6.153000000000000000e+04  2.445829784210939977e+02
2.412500000000000000e+01  5.977100000000000000e+04  2.444810831127840061e+02
2.425000000000000000e+01  6.232130434782608791e+04  2.514448481421221402e+02
2.437500000000000000e+01  5.977533333333332848e+04  2.361997271613815883e+02
2.450000000000000000e+01  6.093547945205479482e+04  2.417256330353773421e+02
2.462500000000000000e+01  6.113200000000000000e+04  2.472488624847443077e+02
2.475000000000000000e+01  6.008000000000000000e+04  2.451122191976564864e+02
2.487500000000000000e+01  6.073535211267606064e+04  2.447037486801771706e+02
2.500000000000000000e+01  6.018718309859155124e+04  2.435969546081929877e+02
2.512500000000000000e+01  6.103086956521738466e+04  2.488280026870670270e+02
2.525000000000000000e+01  5.911943661971831170e+04  2.414265281577685869e+02
2.537500000000000000e+01  6.096700000000000728e+04  2.469149651195731110e+02
2.550000000000000000e+01  5.949600000000000000e+04  2.439180190145861218e+02
2.562500000000000000e+01  5.936411764705881797e+04  2.472046138470446124e+02
2.575000000000000000e+01  5.920880000000000291e+04  2.350777460047349336e+02
2.587500000000000000e+01  6.018959459459459322e+04  2.386128726512607159e+02
2.600000000000000000e+01  5.975057971014492796e+04  2.462042447658584194e+02
2.612500000000000000e+01  5.878152777777777374e+04  2.390579585827010192e+02
2.625000000000000000e+01  5.912260869565216854e+04  2.449070397049428323e+02
2.637500000000000000e+01  5.838690140845069982e+04  2.399261358926701178e+02
2.650000000000000000e+01  5.970704225352112553e+04  2.426233665507699584e+02
2.662500000000000000e+01  5.816797101449275215e+04  2.429217674214613680e+02
2.675000000000000000e+01  5.938130434782608791e+04  2.454422599341089324e+02
2.687500000000000000e+01  5.874700000000000000e+04  2.423778042643344008e+02
2.700000000000000000e+01  5.931700000000000000e+04  2.435508160528311521e+02
2.712500000000000000e+01  5.863445945945946005e+04  2.355101467419346477e+02
2.725000000000000000e+01  5.906833333333333576e+04  2.396404521283839983e+02
2.737500000000000000e+01  5.902418918918918644e+04  2.362915412710747773e+02
2.750000000000000000e+01  5.872373134328358719e+04  2.476956845601054624e+02
2.762500000000000000e+01  5.882527777777777374e+04  2.391469052359879868e+02
2.775000000000000000e+01  5.959563380281690479e+04  2.423969031956339961e+02
2.787500000000000000e+01  6.031666666666666424e+04  2.473677854047261633e+02
2.800000000000000000e+01  6.053100000000000000e+04  2.460304859158718216e+02
2.812500000000000000e+01  6.400058823529411166e+04  2.566767587404606275e+02
2.825000000000000000e+01  6.562200000000000000e+04  2.561679136816318874e+02
2.837500000000000000e+01  7.382900000000000000e+04  2.717149241392529575e+02
2.850000000000000000e+01  8.094081081081081356e+04  2.767049545058134186e+02
2.862500000000000000e+01  9.023680555555554747e+04  2.961928892182538107e+02
2.875000000000000000e+01  9.705402777777778101e+04  3.071776075200280616e+02
2.887500000000000000e+01  1.006140000000000000e+05  3.171970996084296530e+02
2.900000000000000000e+01  1.010211594202898559e+05  3.201331507271574992e+02
2.912500000000000000e+01  1.123963380281690188e+05  3.328863034336014266e+02
2.925000000000000000e+01  8.236239436619718617e+04  2.849602790613625416e+02
2.937500000000000000e+01  7.613941176470588834e+04  2.799621514211763724e+02
2.950000000000000000e+01  7.052000000000000000e+04  2.655560204551950960e+02
2.962500000000000000e+01  6.392800000000000000e+04  2.528398702736575956e+02
2.975000000000000000e+01  6.356507246376811963e+04  2.539415393314485243e+02
2.987500000000000000e+01  5.775472972972973366e+04  2.337367160868006124e+02
3.000000000000000000e+01  5.619930555555555475e+04  2.337481844519180640e+02
3.012500000000000000e+01  5.799888888888889051e+04  2.374611729145952950e+02
3.025000000000000000e+01  5.728000000000000000e+04  2.393324048264254600e+02
3.037500000000000000e+01  5.688500000000000000e+04  2.385057651294827679e+02
3.050000000000000000e+01  5.574100000000000000e+04  2.360953197333653293e+02
3.062500000000000000e+01  5.573400000000000000e+04  2.360804947470248010e+02
3.075000000000000000e+01  5.616700000000000000e+04  2.369957805531566919e+02
3.087500000000000000e+01  5.638652173913043225e+04  2.391729869913494611e+02
3.100000000000000000e+01  5.514173913043478387e+04  2.365182757632194068e+02
3.112500000000000000e+01  5.636115942028985592e+04  2.391191916548844461e+02
3.125000000000000000e+01  5.464794520547945285e+04  2.289151354500854723e+02
3.137500000000000000e+01  5.600472972972973366e+04  2.301683015570046393e+02
3.150000000000000000e+01  5.510774647887323954e+04  2.330913577023155767e+02
3.162500000000000000e+01  5.490900000000000000e+04  2.343266950221421041e+02
3.175000000000000000e+01  5.556833333333333576e+04  2.324322880292635318e+02
3.187500000000000000e+01  5.512956521739130403e+04  2.364921656703249937e+02
3.200000000000000000e+01  5.591681159420289623e+04  2.381747261319553388e+02
3.212500000000000000e+01  5.567070422535211401e+04  2.342789145434196314e+02
3.225000000000000000e+01  5.652447761194030318e+04  2.430132185101952302e+02
3.237500000000000000e+01  5.662400000000000000e+04  2.379579794837735562e+02
3.250000000000000000e+01  5.870565217391304759e+04  2.440419200202255468e+02
3.262500000000000000e+01  5.887756756756756658e+04  2.359978736084269144e+02
3.275000000000000000e+01  6.155563380281690479e+04  2.463506708840687054e+02
3.287500000000000000e+01  6.224652777777777374e+04  2.460029625059999319e+02
3.300000000000000000e+01  6.206830985915493511e+04  2.473744293815407502e+02
3.312500000000000000e+01  6.255900000000000000e+04  2.501179721651365071e+02
3.325000000000000000e+01  6.136800000000000000e+04  2.477256547069762007e+02
3.337500000000000000e+01  5.946700000000000000e+04  2.438585655661904354e+02
3.350000000000000000e+01  5.734115942028985592e+04  2.411891181546880603e+02
3.362500000000000000e+01  5.602000000000000000e+04  2.366854452643846116e+02
3.375000000000000000e+01  5.550691176470588834e+04  2.390386328464074666e+02
3.387500000000000000e+01  5.477753623188406345e+04  2.357358979209107019e+02
3.400000000000000000e+01  5.356555555555555475e+04  2.282052222382085063e+02
3.412500000000000000e+01  5.407826666666666279e+04  2.246620771044567846e+02
3.425000000000000000e+01  5.356217391304347984e+04  2.331060644922984295e+02
3.437500000000000000e+01  5.326507042253520922e+04  2.291612056240385584e+02
3.450000000000000000e+01  5.384478873239436507e+04  2.304048858559737880e+02
3.462500000000000000e+01  5.323753623188406345e+04  2.323985686874992496e+02
3.475000000000000000e+01  5.298700000000000728e+04  2.301890527370925952e+02
3.487500000000000000e+01  5.263211267605633475e+04  2.277955559584553100e+02
3.500000000000000000e+01  5.342044776119403105e+04  2.362464986168264431e+02
3.512500000000000000e+01  5.183652173913043225e+04  2.293202469852557215e+02
3.525000000000000000e+01  5.279623188405796827e+04  2.314333482127983075e+02
3.537500000000000000e+01  5.169647887323942996e+04  2.257617315943727192e+02
3.550000000000000000e+01  5.212067567567567312e+04  2.220435584640295019e+02
3.562500000000000000e+01  5.212445945945946005e+04  2.220516181213266691e+02
3.575000000000000000e+01  5.200695652173912822e+04  2.296969319109433911e+02
3.587500000000000000e+01  5.208690140845069982e+04  2.266126278007344581e+02
3.600000000000000000e+01  5.144500000000000000e+04  2.268149025086314907e+02
3.612500000000000000e+01  5.178400000000000000e+04  2.275609808381041432e+02
3.625000000000000000e+01  5.119264705882353155e+04  2.295611316159356363e+02
3.637500000000000000e+01  5.217333333333333576e+04  2.300640532526404911e+02
3.650000000000000000e+01  5.069826086956521613e+04  2.267884879650463290e+02
3.662500000000000000e+01  5.124102941176470631e+04  2.296695855182194919e+02
3.675000000000000000e+01  5.040700000000000000e+04  2.245150329042578790e+02
3.687500000000000000e+01  5.152552631578947330e+04  2.178479322983080237e+02
3.700000000000000000e+01  5.108930555555555475e+04  2.228680286156189254e+02
3.712500000000000000e+01  5.100830985915493511e+04  2.242540589593200764e+02
3.725000000000000000e+01  5.150600000000000000e+04  2.269493335526676674e+02
3.737500000000000000e+01  5.065300000000000000e+04  2.250622136210341182e+02
3.750000000000000000e+01  5.150900000000000000e+04  2.269559428611641749e+02
3.762500000000000000e+01  4.995869565217391209e+04  2.251282628183247709e+02
3.775000000000000000e+01  5.162652173913043225e+04  2.288552647397866338e+02
3.787500000000000000e+01  5.062567164179105021e+04  2.299836793341653447e+02
3.800000000000000000e+01  5.073800000000000000e+04  2.252509711410807540e+02
3.812500000000000000e+01  4.977405797101449571e+04  2.247118624594943412e+02
3.825000000000000000e+01  5.154545454545454413e+04  2.164705618143756283e+02
3.837500000000000000e+01  5.009140845070422074e+04  2.222293762211105275e+02
3.850000000000000000e+01  5.040900000000000000e+04  2.245194869048118846e+02
3.862500000000000000e+01  5.051140845070422074e+04  2.231590915976002520e+02
3.875000000000000000e+01  5.008550724637681560e+04  2.254138065048167334e+02
3.887500000000000000e+01  5.025600000000000000e+04  2.241785003072328664e+02
3.900000000000000000e+01  4.931500000000000000e+04  2.220698088439759204e+02
3.912500000000000000e+01  5.018492753623188037e+04  2.256374200495388891e+02
3.925000000000000000e+01  4.951200000000000000e+04  2.225129209731425988e+02
3.937500000000000000e+01  5.044772727272727207e+04  2.313118356013288803e+02
3.950000000000000000e+01  4.948695652173912822e+04  2.240628456263334556e+02
3.962500000000000000e+01  5.070613333333333139e+04  2.175447642312828407e+02
3.975000000000000000e+01  4.951876712328767462e+04  2.179076623166409945e+02
3.987500000000000000e+01  4.979070422535211401e+04  2.215613384619514079e+02
4.000000000000000000e+01  5.012200000000000000e+04  2.238794318377639740e+02
4.012500000000000000e+01  5.015100000000000000e+04  2.239441894758602700e+02
4.025000000000000000e+01  4.940985507246376801e+04  2.238882308844894169e+02
4.037500000000000000e+01  4.922676056338028138e+04  2.203030319981048990e+02
4.050000000000000000e+01  5.082000000000000000e+04  2.270606124785415716e+02
4.062500000000000000e+01  4.904014705882353155e+04  2.246831198048921578e+02
4.075000000000000000e+01  5.035231884057971183e+04  2.260134124159282294e+02
4.087500000000000000e+01  4.936955882352941262e+04  2.254364759112426100e+02
4.100000000000000000e+01  4.916081081081081356e+04  2.156466315199523649e+02
4.112500000000000000e+01  4.809875000000000000e+04  2.162467886723664208e+02
4.125000000000000000e+01  4.861694444444444525e+04  2.174085411510598647e+02
4.137500000000000000e+01  4.855042253521126986e+04  2.187844001913977650e+02
4.150000000000000000e+01  4.878700000000000728e+04  2.208777942664223417e+02
4.162500000000000000e+01  4.875956521739130403e+04  2.224100393032219642e+02
4.175000000000000000e+01  4.819956521739130403e+04  2.211291695838243641e+02
4.187500000000000000e+01  4.862057971014492796e+04  2.220928314757156841e+02
4.200000000000000000e+01  4.773086956521738466e+04  2.200514060351503929e+02
4.212500000000000000e+01  4.914823529411765048e+04  2.249305929087850302e+02
4.225000000000000000e+01  4.784246376811593655e+04  2.203084946347588584e+02
4.237500000000000000e+01  4.830189189189188619e+04  2.137544825650552127e+02
4.250000000000000000e+01  4.771890410958903522e+04  2.139108535249446277e+02
4.262500000000000000e+01  4.817183098591549060e+04  2.179297008054572586e+02
4.275000000000000000e+01  4.843700000000000728e+04  2.200840748441376604e+02
4.287500000000000000e+01  4.817281690140844876e+04  2.179319309383445500e+02
4.300000000000000000e+01  4.870782608695652016e+04  2.222920075260374517e+02
4.312500000000000000e+01  4.817623188405796827e+04  2.210756389637881796e+02
4.325000000000000000e+01  4.849478260869564838e+04  2.218053325442234893e+02
4.337500000000000000e+01  4.837608695652173628e+04  2.215337212842246970e+02
4.350000000000000000e+01  4.893811594202898414e+04  2.228168844570802491e+02
4.362500000000000000e+01  4.824776119402985205e+04  2.245175020130511712e+02
4.375000000000000000e+01  5.117840000000000146e+04  2.185555001976996152e+02
4.387500000000000000e+01  5.384917808219177823e+04  2.272359966224669563e+02
4.400000000000000000e+01  4.278458333333333576e+04  2.039512752722698394e+02
4.412500000000000000e+01  4.956304347826087178e+04  2.242350295029897325e+02
4.425000000000000000e+01  4.731289855072463251e+04  2.190858113448226163e+02
4.437500000000000000e+01  4.780900000000000000e+04  2.186526926429217212e+02
4.450000000000000000e+01  4.960666666666666424e+04  2.243336886531630512e+02
4.462500000000000000e+01  4.905173913043478387e+04  2.230753995859720078e+02
4.475000000000000000e+01  4.824318840579710377e+04  2.212292138243938666e+02
4.487500000000000000e+01  4.861347826086956775e+04  2.220766116097563838e+02
4.500000000000000000e+01  4.815695652173912822e+04  2.210314082384023777e+02
4.512500000000000000e+01  4.892232876712329016e+04  2.165913712627091172e+02
4.525000000000000000e+01  4.768917808219177823e+04  2.138442163022823763e+02
4.537500000000000000e+01  4.873577464788732323e+04  2.192016315784384801e+02
4.550000000000000000e+01  4.823295774647887447e+04  2.180679259162838832e+02
4.562500000000000000e+01  4.727942028985507204e+04  2.190082858696517860e+02
4.575000000000000000e+01  4.796900000000000000e+04  2.190182640785923240e+02
4.587500000000000000e+01  4.830608695652173628e+04  2.213733840670167581e+02
4.600000000000000000e+01  4.798956521739130403e+04  2.206469264743356575e+02
4.612500000000000000e+01  4.786044117647058738e+04  2.219641890284841850e+02
4.625000000000000000e+01  4.905200000000000000e+04  2.214768610938849349e+02
4.637500000000000000e+01  4.755264705882353155e+04  2.212493035588124144e+02
4.650000000000000000e+01  4.928500000000000000e+04  2.220022522408275165e+02
4.662500000000000000e+01  4.990355263157894660e+04  2.143916940472608417e+02
4.675000000000000000e+01  5.252400000000000000e+04  2.291811510574113413e+02
4.687500000000000000e+01  5.558291666666666424e+04  2.324627857513095819e+02
4.700000000000000000e+01  5.813753623188406345e+04  2.428582080571952417e+02
4.712500000000000000e+01  6.195600000000000000e+04  2.489096221522984820e+02
4.725000000000000000e+01  6.292600000000000000e+04  2.508505531187842621e+02
4.737500000000000000e+01  6.635100000000000000e+04  2.575868785478018026e+02
4.750000000000000000e+01  6.490544117647058738e+04  2.584848636583666917e+02
4.762500000000000000e+01  6.621794117647058738e+04  2.610852881371542935e+02
4.775000000000000000e+01  6.204161764705881797e+04  2.527179675196570372e+02
4.787500000000000000e+01  6.237101449275362393e+04  2.515451097497731325e+02
4.800000000000000000e+01  5.681052631578947330e+04  2.287476442819530575e+02
4.812500000000000000e+01  5.454361111111110949e+04  2.302792018452147147e+02
4.825000000000000000e+01  5.132084507042253972e+04  2.249400281555369645e+02
4.837500000000000000e+01  4.844700000000000000e+04  2.201067922623016102e+02
4.850000000000000000e+01  4.780802816901408369e+04  2.171052179464863912e+02
4.862500000000000000e+01  4.737376811594203173e+04  2.192266965162966699e+02
4.875000000000000000e+01  4.609911764705881797e+04  2.178416260691305695e+02
4.887500000000000000e+01  4.562764705882353155e+04  2.167247947933062164e+02
4.900000000000000000e+01  4.564411764705881797e+04  2.167639077325875405e+02
4.912500000000000000e+01  4.528391304347826372e+04  2.143366549107064998e+02
4.925000000000000000e+01  4.622925373134328402e+04  2.197708359094281718e+02
4.937500000000000000e+01  4.440333333333333576e+04  1.996225069954420235e+02
4.950000000000000000e+01  4.537458333333333576e+04  2.100337550031916578e+02
4.962500000000000000e+01  4.493901408450704184e+04  2.104900715572158845e+02
4.975000000000000000e+01  4.513444444444444525e+04  2.094772299715251052e+02
4.987500000000000000e+01  4.567191176470588834e+04  2.168298948189506916e+02
5.000000000000000000e+01  4.504855072463768010e+04  2.137789238240560508e+02
5.012500000000000000e+01  4.470362318840579974e+04  2.129589204173875885e+02
5.025000000000000000e+01  4.497500000000000000e+04  2.151692220501042243e+02
5.037500000000000000e+01  4.583558823529411166e+04  2.172180788323713614e+02
5.050000000000000000e+01  4.507176470588234952e+04  2.154005683471857822e+02
5.062500000000000000e+01  4.572750000000000000e+04  2.169618087834544156e+02
5.075000000000000000e+01  4.510363636363636033e+04  2.024927302031457259e+02
5.087500000000000000e+01  4.482527777777777374e+04  2.087585475443808321e+02
5.100000000000000000e+01  4.570616438356164144e+04  2.093509705278423496e+02
5.112500000000000000e+01  4.496231884057971183e+04  2.135742181300530262e+02
5.125000000000000000e+01  4.501299999999999272e+04  2.121626734371529324e+02
5.137500000000000000e+01  4.388897058823529369e+04  2.125554578559672336e+02
5.150000000000000000e+01  4.531637681159420026e+04  2.144134694831931824e+02
5.162500000000000000e+01  4.472073529411765048e+04  2.145601338507745197e+02
5.175000000000000000e+01  4.520884057971014408e+04  2.141589156860434571e+02
5.187500000000000000e+01  4.385652173913043225e+04  2.109315611838722759e+02
5.200000000000000000e+01  4.486588235294118203e+04  2.149080434232922983e+02
5.212500000000000000e+01  4.392363636363636033e+04  1.998263709133424300e+02
5.225000000000000000e+01  4.463277777777777374e+04  2.083098134871752336e+02
5.237500000000000000e+01  4.390478873239436507e+04  2.080538666458864441e+02
5.250000000000000000e+01  4.420449275362318440e+04  2.117667055420645283e+02
5.262500000000000000e+01  4.476000000000000000e+04  2.115655926657262569e+02
5.275000000000000000e+01  4.416588235294118203e+04  2.132249490391158986e+02
5.287500000000000000e+01  4.449140845070422074e+04  2.094391770778822206e+02
5.300000000000000000e+01  4.389823529411765048e+04  2.125778912812705812e+02
5.312500000000000000e+01  4.518550724637681560e+04  2.141036423563068354e+02
5.325000000000000000e+01  4.446750000000000000e+04  2.139517881370913699e+02
5.337500000000000000e+01  4.696073529411765048e+04  2.198679908285957652e+02
5.350000000000000000e+01  4.634653333333333285e+04  2.079826061103294421e+02
5.362500000000000000e+01  4.890794520547945285e+04  2.165595291117199679e+02
5.375000000000000000e+01  4.926323943661971862e+04  2.203846432804482447e+02
5.387500000000000000e+01  5.075507246376811963e+04  2.269155200159578953e+02
5.400000000000000000e+01  5.124295774647887447e+04  2.247692726936506631e+02
5.412500000000000000e+01  5.009666666666666424e+04  2.254389170352130236e+02
5.425000000000000000e+01  5.113550724637681560e+04  2.277643553199124256e+02
5.437500000000000000e+01  4.932632352941176214e+04  2.253377415145209284e+02
5.450000000000000000e+01  5.067289855072463251e+04  2.267317542489209927e+02
5.462500000000000000e+01  4.747955882352941262e+04  2.210792085113074847e+02
5.475000000000000000e+01  4.880358208955223381e+04  2.258070351173483914e+02
5.487500000000000000e+01  4.515460526315789321e+04  2.039356957610416998e+02
5.500000000000000000e+01  4.441835616438356374e+04  2.063805811291777275e+02
5.512500000000000000e+01  4.462943661971831170e+04  2.097638028959145231e+02
5.525000000000000000e+01  4.450200000000000000e+04  2.109549714986589208e+02
5.537500000000000000e+01  4.466200000000000000e+04  2.113338590950347395e+02
5.550000000000000000e+01  4.333507246376811963e+04  2.096738347820931949e+02
5.562500000000000000e+01  4.329056338028168830e+04  2.065934101937643845e+02
5.575000000000000000e+01  4.276279411764705583e+04  2.098106845620627041e+02
5.587500000000000000e+01  4.412264705882353155e+04  2.131205573667597548e+02
5.600000000000000000e+01  4.281701492537313607e+04  2.115045973451901773e+02
5.612500000000000000e+01  4.435632352941176214e+04  2.136841624460662104e+02
5.625000000000000000e+01  4.263472972972973366e+04  2.008236782462140866e+02
5.637500000000000000e+01  4.326472972972973366e+04  2.023019913156686584e+02
5.650000000000000000e+01  4.238253521126760461e+04  2.044152589598338920e+02
5.662500000000000000e+01  4.282521126760563493e+04  2.054800216028824877e+02
5.675000000000000000e+01  4.244700000000000000e+04  2.060266972991607304e+02
5.687500000000000000e+01  4.252300000000000000e+04  2.062110569295448954e+02
5.700000000000000000e+01  4.370536231884058361e+04  2.105677405656899737e+02
5.712500000000000000e+01  4.169220588235294417e+04  2.071676790231379357e+02
5.725000000000000000e+01  4.316735294117646845e+04  2.108008087481121038e+02
5.737500000000000000e+01  4.206073529411765048e+04  2.080812719682976422e+02
5.750000000000000000e+01  4.400074626865671598e+04  2.144083229200828669e+02
5.762500000000000000e+01  4.185319444444444525e+04  2.017191257909783246e+02
5.775000000000000000e+01  4.217776315789473301e+04  1.970988070757723278e+02
5.787500000000000000e+01  4.245845070422535355e+04  2.045982511075754928e+02
5.800000000000000000e+01  4.182694444444444525e+04  2.016558575309510104e+02
5.812500000000000000e+01  4.166400000000000000e+04  2.041176131547691739e+02
5.825000000000000000e+01  4.158800000000000000e+04  2.039313610016860423e+02
5.837500000000000000e+01  4.220897058823529369e+04  2.084476214775644394e+02
5.850000000000000000e+01  4.517779411764705583e+04  2.156537798606045442e+02
5.862500000000000000e+01  2.708373134328357992e+04  1.682154443913780995e+02
5.875000000000000000e+01  4.508507246376811963e+04  2.138655636400332583e+02
5.887500000000000000e+01  4.850164179104477080e+04  2.251074345620806127e+02
5.900000000000000000e+01  4.427450704225352092e+04  2.089280317143312402e+02
5.912500000000000000e+01  4.250727272727272066e+04  1.965781656405704609e+02
5.925000000000000000e+01  4.260277777777777374e+04  2.035174864328631372e+02
5.937500000000000000e+01  4.283211267605633475e+04  2.054965777900834496e+02
5.950000000000000000e+01  4.333500000000000000e+04  2.081706031119667841e+02
5.962500000000000000e+01  4.281057971014492796e+04  2.084011105880914556e+02
5.975000000000000000e+01  4.425441176470588834e+04  2.134385441074939820e+02
5.987500000000000000e+01  4.310173913043478387e+04  2.091085890545462860e+02
6.000000000000000000e+01  4.575941176470588834e+04  2.170375009453642576e+02
6.012500000000000000e+01  4.472164179104477080e+04  2.161575891884856446e+02
6.025000000000000000e+01  4.612391304347826372e+04  2.163154537968906936e+02
6.037500000000000000e+01  4.501835820895522920e+04  2.168734783034701934e+02
6.050000000000000000e+01  4.719296296296296350e+04  2.019505931329693169e+02
6.062500000000000000e+01  4.587916666666666424e+04  2.111983555105729806e+02
6.075000000000000000e+01  4.578600000000000000e+04  2.139766342384139932e+02
6.087500000000000000e+01  4.593900000000000000e+04  2.143338517360242008e+02
6.100000000000000000e+01  4.471884057971014408e+04  2.129951636036521165e+02
6.112500000000000000e+01  4.538840579710144812e+04  2.145838036284848158e+02
6.125000000000000000e+01  4.251716417910448217e+04  2.107627049529028511e+02
6.137500000000000000e+01  4.417811594202898414e+04  2.117035155398073698e+02
6.150000000000000000e+01  4.267941176470588834e+04  2.096060318342840105e+02
6.162500000000000000e+01  4.462552238805969682e+04  2.159251724716876026e+02
6.175000000000000000e+01  4.208318840579710377e+04  2.066230618470274578e+02
6.187500000000000000e+01  4.362400000000000000e+04  1.953740003173400908e+02
6.200000000000000000e+01  4.409805555555555475e+04  2.070582274817912776e+02
6.212500000000000000e+01  4.441300000000000000e+04  2.107439204342559549e+02
6.225000000000000000e+01  4.665900000000000000e+04  2.160069443328153795e+02
6.237500000000000000e+01  4.816411764705881797e+04  2.226672614969711788e+02
6.250000000000000000e+01  5.372652173913043225e+04  2.334634167952797839e+02
6.262500000000000000e+01  5.725289855072463251e+04  2.410034246720027227e+02
6.275000000000000000e+01  6.450550724637681560e+04  2.558131538256728277e+02
6.287500000000000000e+01  7.023507462686566578e+04  2.708872989171618428e+02
6.300000000000000000e+01  8.108882352941177669e+04  2.889183083976085413e+02
6.312500000000000000e+01  8.610000000000000000e+04  2.955466563623356251e+02
6.325000000000000000e+01  9.744987179487179674e+04  2.957279377218931700e+02
6.337500000000000000e+01  1.018490277777777810e+05  3.146742571569590154e+02
6.350000000000000000e+01  1.064128169014084415e+05  3.239043760624028891e+02
6.362500000000000000e+01  1.085852173913043371e+05  3.319019677466176859e+02
6.375000000000000000e+01  1.063660000000000000e+05  3.261380075980105744e+02
6.387500000000000000e+01  1.064578260869565274e+05  3.286345890676984141e+02
6.400000000000000000e+01  9.967588235294117476e+04  3.203240951779261536e+02
6.412500000000000000e+01  9.388521739130433707e+04  3.086193006210338012e+02
6.425000000000000000e+01  8.479676470588236407e+04  2.954501433359473594e+02
6.437500000000000000e+01  7.956159420289855916e+04  2.841032572596612340e+02
6.450000000000000000e+01  6.590075757575758325e+04  2.643761390204858230e+02
6.462500000000000000e+01  5.926909090909091174e+04  2.321227945194895881e+02
6.475000000000000000e+01  5.327000000000000000e+04  2.260106677079828046e+02
6.487500000000000000e+01  4.928788732394366525e+04  2.204397689343549018e+02
6.500000000000000000e+01  4.633900000000000000e+04  2.152649530230129926e+02
6.512500000000000000e+01  4.450072463768115995e+04  2.124750871888476809e+02
6.525000000000000000e+01  4.384900000000000000e+04  2.094015281701640276e+02
6.537500000000000000e+01  4.254072463768115995e+04  2.077432474926850148e+02
6.550000000000000000e+01  4.259602941176470631e+04  2.094011790946468636e+02
6.562500000000000000e+01  4.173521739130435162e+04  2.057670420994740255e+02
6.575000000000000000e+01  4.315865671641791414e+04  2.123467303323144506e+02
6.587500000000000000e+01  4.039742424242424022e+04  2.069921568185358751e+02
6.600000000000000000e+01  4.282802631578947330e+04  1.986123519408858442e+02
6.612500000000000000e+01  4.229773333333332994e+04  1.986904236354747866e+02
6.625000000000000000e+01  4.284197183098591631e+04  2.055202271724814125e+02
6.637500000000000000e+01  4.203799999999999272e+04  2.050317048653695338e+02
6.650000000000000000e+01  4.277200000000000000e+04  2.068139260301394700e+02
6.662500000000000000e+01  4.338478260869564838e+04  2.097940599112355073e+02
6.675000000000000000e+01  4.191300000000000000e+04  2.047266470198738091e+02
6.687500000000000000e+01  4.370882352941176214e+04  2.121187807871565099e+02
6.700000000000000000e+01  4.338014925373133883e+04  2.128909204180293955e+02
6.712500000000000000e+01  4.392238805970149406e+04  2.142173245840002949e+02
6.725000000000000000e+01  4.181333333333333576e+04  2.105884012652993817e+02
6.737500000000000000e+01  4.513434210526315292e+04  2.038899324896575820e+02
6.750000000000000000e+01  4.353906666666666570e+04  2.015848759759080338e+02
6.762500000000000000e+01  4.421535211267606064e+04  2.087884112551971612e+02
6.775000000000000000e+01  4.285263888888889051e+04  2.041134189822951726e+02
6.787500000000000000e+01  4.326299999999999272e+04  2.079975961399554194e+02
6.800000000000000000e+01  4.408072463768115995e+04  2.114700350389782386e+02
6.812500000000000000e+01  4.278800000000000000e+04  2.068526045279585048e+02
6.825000000000000000e+01  4.437582089552238904e+04  2.153202218802167636e+02
6.837500000000000000e+01  4.193848484848484804e+04  2.109033219343367307e+02
6.850000000000000000e+01  4.589074626865671598e+04  2.189647364373409459e+02
6.862500000000000000e+01  4.413761194029850594e+04  2.147415258460736709e+02
6.875000000000000000e+01  4.417189189189188619e+04  2.044118931468952667e+02
6.887500000000000000e+01  4.370486842105262622e+04  2.006352014777620525e+02
6.900000000000000000e+01  4.440819444444444525e+04  2.077850656030272205e+02
6.912500000000000000e+01  4.456929577464788599e+04  2.096224205910273497e+02
6.925000000000000000e+01  4.479112676056338387e+04  2.101434410593720088e+02
6.937500000000000000e+01  4.561600000000000000e+04  2.135790251873999068e+02
6.950000000000000000e+01  4.515617647058823786e+04  2.156021783469695663e+02
6.962500000000000000e+01  4.543417910447761096e+04  2.178727732715501872e+02
6.975000000000000000e+01  4.382313432835821004e+04  2.139751486123045936e+02
6.987500000000000000e+01  4.794373134328358719e+04  2.238089935246907771e+02
7.000000000000000000e+01  4.403636363636363967e+04  2.161139379118792760e+02
7.012500000000000000e+01  4.729602739726027357e+04  2.129609237359491658e+02
7.025000000000000000e+01  4.471294871794871869e+04  2.003172615120762998e+02
7.037500000000000000e+01  4.564863013698630675e+04  2.092191650768789373e+02
7.050000000000000000e+01  4.562718309859155124e+04  2.120956074908701225e+02
7.062500000000000000e+01  4.627098591549295816e+04  2.135867081269669825e+02
7.075000000000000000e+01  4.705544117647058738e+04  2.200895834438431962e+02
7.087500000000000000e+01  4.512323529411765048e+04  2.155235237122769547e+02
7.100000000000000000e+01  4.747985074626866117e+04  2.227236274231350706e+02
7.112500000000000000e+01  4.646746268656715984e+04  2.203363232519201631e+02
7.125000000000000000e+01  4.789044776119403105e+04  2.236845908157548308e+02
7.137500000000000000e+01  4.491701492537313607e+04  2.166292329047427927e+02
7.150000000000000000e+01  4.903799999999999272e+04  2.214452528278716557e+02
7.162500000000000000e+01  4.730876543209876399e+04  2.021982153102575239e+02
7.175000000000000000e+01  4.819547945205479482e+04  2.149763784935208264e+02
7.187500000000000000e+01  4.822125000000000000e+04  2.165219869512870616e+02
7.200000000000000000e+01  4.985521739130435162e+04  2.248949905484491012e+02
7.212500000000000000e+01  5.067485294117646845e+04  2.283972193184224011e+02
7.225000000000000000e+01  4.960426470588234952e+04  2.259717098838260938e+02
7.237500000000000000e+01  5.204865671641791414e+04  2.331934681424786788e+02
7.250000000000000000e+01  5.120397058823529369e+04  2.295865190362522128e+02
7.262500000000000000e+01  5.406716417910448217e+04  2.376722154105709706e+02
7.275000000000000000e+01  5.007820895522387582e+04  2.287367850147645640e+02
7.287500000000000000e+01  5.536164179104477080e+04  2.405005639790182954e+02
7.300000000000000000e+01  5.300250000000000000e+04  2.101636267292701632e+02
7.312500000000000000e+01  6.975164383561644354e+04  2.586216114800998298e+02
7.325000000000000000e+01  6.020690140845069982e+04  2.436368545224041497e+02
7.337500000000000000e+01  3.102623188405796827e+04  1.774144509858470826e+02
7.350000000000000000e+01  5.371573529411765048e+04  2.351501857570852394e+02
7.362500000000000000e+01  5.092808823529411166e+04  2.289671880060350304e+02
7.375000000000000000e+01  5.169911764705881797e+04  2.306939096092392560e+02
7.387500000000000000e+01  5.116279411764705583e+04  2.294941876822391578e+02
7.400000000000000000e+01  5.210716417910448217e+04  2.333244967510676986e+02
7.412500000000000000e+01  4.835850746268656803e+04  2.247750292336450286e+02
7.425000000000000000e+01  5.211134328358208586e+04  2.333338531218684864e+02
7.437500000000000000e+01  4.957349397590361332e+04  2.044724206905450785e+02
7.450000000000000000e+01  5.010108108108107990e+04  2.176991376559810192e+02
7.462500000000000000e+01  4.973500000000000000e+04  2.230134525090358864e+02
7.475000000000000000e+01  4.918565217391304759e+04  2.233796940473001200e+02
7.487500000000000000e+01  5.150376811594203173e+04  2.285830254807040944e+02
7.500000000000000000e+01  4.862941176470588834e+04  2.237402256665414484e+02
7.512500000000000000e+01  5.279852941176470631e+04  2.331339257500721089e+02
7.525000000000000000e+01  4.931911764705881797e+04  2.253212815754336305e+02
7.537500000000000000e+01  5.367432835820894979e+04  2.368072137702970110e+02
7.550000000000000000e+01  4.824132352941176214e+04  2.228456550757927062e+02
7.562500000000000000e+01  5.430955223880596895e+04  2.382043728284042174e+02
7.575000000000000000e+01  5.048209876543209975e+04  2.088695887531954156e+02
7.587500000000000000e+01  5.195630136986301659e+04  2.232064311407903290e+02
7.600000000000000000e+01  5.113746478873239539e+04  2.245377892600541827e+02
7.612500000000000000e+01  5.154231884057971183e+04  2.286685570180212892e+02
7.625000000000000000e+01  5.327000000000000000e+04  2.324694151614513942e+02
7.637500000000000000e+01  5.047811594202898414e+04  2.262955652233148669e+02
7.650000000000000000e+01  5.432308823529411166e+04  2.364758468101287576e+02
7.662500000000000000e+01  5.033720588235294417e+04  2.276350411024547498e+02
7.675000000000000000e+01  5.445897058823529369e+04  2.367714193421601010e+02
7.687500000000000000e+01  4.874820895522387582e+04  2.256788970641354695e+02
7.700000000000000000e+01  5.555560606060605642e+04  2.427398040876724110e+02
7.712500000000000000e+01  4.936506329113923857e+04  2.091439583666299029e+02
7.725000000000000000e+01  5.430959459459459322e+04  2.266582026592565455e+02
7.737500000000000000e+01  5.204402777777777374e+04  2.249407929645180673e+02
7.750000000000000000e+01  5.237600000000000000e+04  2.288580345978703008e+02
7.762500000000000000e+01  5.480188405797101586e+04  2.357882827065622564e+02
7.775000000000000000e+01  5.285608695652173628e+04  2.315644990111144637e+02
7.787500000000000000e+01  5.365956521739130403e+04  2.333178948893855420e+02
7.800000000000000000e+01  5.254529411764705583e+04  2.325741686960026016e+02
7.812500000000000000e+01  5.655897058823529369e+04  2.412933271418490619e+02
7.825000000000000000e+01  5.151151515151515196e+04  2.337379412091624715e+02
7.837500000000000000e+01  5.916093750000000000e+04  2.543762476935002610e+02
7.850000000000000000e+01  5.442455696202531544e+04  2.196002982215865984e+02
7.862500000000000000e+01  5.776959999999999854e+04  2.322031294649866027e+02
7.875000000000000000e+01  5.691875000000000000e+04  2.352396089333407758e+02
7.887500000000000000e+01  5.653239436619718617e+04  2.360850767406339514e+02
7.900000000000000000e+01  5.891159420289855188e+04  2.444696002026231554e+02
7.912500000000000000e+01  5.746300000000000000e+04  2.397144134172995678e+02
7.925000000000000000e+01  6.035441176470588834e+04  2.492579818631518833e+02
7.937500000000000000e+01  5.654376811594203173e+04  2.395062483864942067e+02
7.950000000000000000e+01  5.911970149253731506e+04  2.485293791599617066e+02
7.962500000000000000e+01  5.704453125000000000e+04  2.497848195040833446e+02
7.975000000000000000e+01  5.969687500000000000e+04  2.555258441552439024e+02
7.987500000000000000e+01  5.677909090909091174e+04  2.271945320026448769e+02
8.000000000000000000e+01  5.807935897435896914e+04  2.283035296346849918e+02
8.012500000000000000e+01  5.699555555555555475e+04  2.353982703398908711e+02
8.025000000000000000e+01  5.670000000000000000e+04  2.347871376374779402e+02
8.037500000000000000e+01  5.901400000000000000e+04  2.429279728643862768e+02
8.050000000000000000e+01  5.271700000000000000e+04  2.296018292610056619e+02
8.062500000000000000e+01  5.873405797101449571e+04  2.441009549397103058e+02
8.075000000000000000e+01  5.448161764705881797e+04  2.368206455655628986e+02
8.087500000000000000e+01  6.346812500000000000e+04  2.634734554347932658e+02
8.100000000000000000e+01  5.593546875000000000e+04  2.473447370479357801e+02
8.112500000000000000e+01  6.334015625000000000e+04  2.632077048614601154e+02
8.125000000000000000e+01  5.938671052631579369e+04  2.338766469981138130e+02
8.137500000000000000e+01  6.339550000000000000e+04  2.355229553567974392e+02
8.150000000000000000e+01  6.518534246575342695e+04  2.500129852135284807e+02
8.162500000000000000e+01  6.702111111111110949e+04  2.552634199807071980e+02
8.175000000000000000e+01  7.067140845070422802e+04  2.639621876343168765e+02
8.187500000000000000e+01  6.645957746478873014e+04  2.559756376649166896e+02
8.200000000000000000e+01  7.372420289855073497e+04  2.734824850099643072e+02
8.212500000000000000e+01  6.720875000000000000e+04  2.711264839747308883e+02
8.225000000000000000e+01  7.545125000000000000e+04  2.872713085003443325e+02
8.237500000000000000e+01  6.834078125000000000e+04  2.734003099709059939e+02
8.250000000000000000e+01  7.577937500000000000e+04  2.878952785410868387e+02
8.262500000000000000e+01  6.892986301369863213e+04  2.570936189741885869e+02
8.275000000000000000e+01  7.104333333333332848e+04  2.433162094431395985e+02
8.287500000000000000e+01  7.037613333333333139e+04  2.562896625131632504e+02
8.300000000000000000e+01  6.652301369863013679e+04  2.525652217108770969e+02
8.312500000000000000e+01  6.988527777777778101e+04  2.606607374763763687e+02
8.325000000000000000e+01  6.441971830985915585e+04  2.520166628095530257e+02
8.337500000000000000e+01  6.647812500000000000e+04  2.696487515616380506e+02
8.350000000000000000e+01  6.002500000000000000e+04  2.562271331260606075e+02
8.362500000000000000e+01  6.679531250000000000e+04  2.702912744556786606e+02
8.375000000000000000e+01  5.677328125000000000e+04  2.491902413161227514e+02
8.387500000000000000e+01  6.562500000000000000e+04  2.679129406169101344e+02
8.400000000000000000e+01  5.605906250000000000e+04  2.476178499409422500e+02
8.412500000000000000e+01  6.258744680851064186e+04  2.158881033203865059e+02
8.425000000000000000e+01  6.033090909090908826e+04  2.341928286513819444e+02
8.437500000000000000e+01  5.847706666666666570e+04  2.336206231383598606e+02
8.450000000000000000e+01  6.620178082191781141e+04  2.519546778534781595e+02
8.462500000000000000e+01  5.684430769230769511e+04  2.474205867456508372e+02
8.475000000000000000e+01  6.802359375000000000e+04  2.727651107895995324e+02
8.487500000000000000e+01  6.061343750000000000e+04  2.574799939133621365e+02
8.500000000000000000e+01  6.644312500000000000e+04  2.695777586685333063e+02
8.512500000000000000e+01  6.077203125000000000e+04  2.578166192852731911e+02
8.525000000000000000e+01  6.820296875000000000e+04  2.731245083662623188e+02
8.537500000000000000e+01  6.742421875000000000e+04  2.715607469017061248e+02
8.550000000000000000e+01  6.402593750000000000e+04  2.160684600470029864e+02
8.562500000000000000e+01  6.584200000000000000e+04  2.400244779183989863e+02
8.575000000000000000e+01  6.414181818181817653e+04  2.414761764680997942e+02
8.587500000000000000e+01  6.905238805970149406e+04  2.685968838846123958e+02
8.600000000000000000e+01  5.917625000000000000e+04  2.544091653960210806e+02
8.612500000000000000e+01  6.923328125000000000e+04  2.751797619142575968e+02
8.625000000000000000e+01  6.018250000000000000e+04  2.565630709494255939e+02
8.637500000000000000e+01  6.610953125000000000e+04  2.689001669852354439e+02
8.650000000000000000e+01  5.929437500000000000e+04  2.546629589403413831e+02
8.662500000000000000e+01  6.545437500000000000e+04  2.675644271128918490e+02
8.675000000000000000e+01  5.850687500000000000e+04  2.529661924669974553e+02
8.687500000000000000e+01  6.176800000000000000e+04  2.079365287774132298e+02
8.700000000000000000e+01  6.012011764705882524e+04  2.225099663410771313e+02
8.712500000000000000e+01  5.709732394366196968e+04  2.372617463530175144e+02
8.725000000000000000e+01  6.201562500000000000e+04  2.604411446829206511e+02
8.737500000000000000e+01  5.428062500000000000e+04  2.436584363278849992e+02
8.750000000000000000e+01  6.195656250000000000e+04  2.603170955476704762e+02
8.762500000000000000e+01  5.659718750000000000e+04  2.488034843568815688e+02
8.775000000000000000e+01  6.128718750000000000e+04  2.589070515225975555e+02
8.787500000000000000e+01  8.301562500000000000e+04  3.013276287427855209e+02
8.800000000000000000e+01  8.180156250000000000e+03  9.458882544168470474e+01
8.812500000000000000e+01  7.404031250000000000e+04  2.845726476611464477e+02
8.825000000000000000e+01  5.976266055045871326e+04  1.959073512193008071e+02
8.837500000000000000e+01  5.927397590361446055e+04  2.235846599381872295e+02
8.850000000000000000e+01  5.523000000000000000e+04  2.457800083407924205e+02
8.862500000000000000e+01  6.205718750000000000e+04  2.605284031120694976e+02
8.875000000000000000e+01  5.577031250000000000e+04  2.469793094509639388e+02
8.887500000000000000e+01  6.101593750000000000e+04  2.583334698420338214e+02
8.900000000000000000e+01  5.511406250000000000e+04  2.455219050499873390e+02
8.912500000000000000e+01  6.145125000000000000e+04  2.592533600312636395e+02
8.925000000000000000e+01  5.483078125000000000e+04  2.448901120751662859e+02
8.937500000000000000e+01  6.181437500000000000e+04  2.600182160085135479e+02
8.950000000000000000e+01  5.434406250000000000e+04  2.438007759613881831e+02
8.962500000000000000e+01  5.868023437500000000e+04  1.791389214376041821e+02
8.975000000000000000e+01  6.333140625000000000e+04  2.631895240809130314e+02
8.987500000000000000e+01  5.527156250000000000e+04  2.458724699602926194e+02
9.000000000000000000e+01  6.360265625000000000e+04  2.637525455297777626e+02
9.012500000000000000e+01  5.570031250000000000e+04  2.468242629825419101e+02
9.025000000000000000e+01  6.323187500000000000e+04  2.629826292386057958e+02
9.037500000000000000e+01  5.452890625000000000e+04  2.442150511556106096e+02
9.050000000000000000e+01  6.315531250000000000e+04  2.628233685326991917e+02
9.062500000000000000e+01  5.668687500000000000e+04  2.490005412268214400e+02
9.075000000000000000e+01  6.130140625000000000e+04  2.589370832575695545e+02
9.087500000000000000e+01  5.930700000000000000e+04  2.435302855909301343e+02
9.100000000000000000e+01  5.906852459016393550e+04  1.840971928199678302e+02
9.112500000000000000e+01  6.431140625000000000e+04  2.652180246249064908e+02
9.125000000000000000e+01  5.723484375000000000e+04  2.502011397886957980e+02
9.137500000000000000e+01  6.478062500000000000e+04  2.661837872481154932e+02
9.150000000000000000e+01  5.519828125000000000e+04  2.457094221172389155e+02
9.162500000000000000e+01  6.539750000000000000e+04  2.674481550226136619e+02
9.175000000000000000e+01  5.579984375000000000e+04  2.470446904945793563e+02
9.187500000000000000e+01  6.640046875000000000e+04  2.694912107941787554e+02
9.200000000000000000e+01  5.585562500000000000e+04  2.471681408348373736e+02
9.212500000000000000e+01  6.360156250000000000e+04  2.637502776953514285e+02
9.225000000000000000e+01  5.928284090909090446e+04  2.171561771366291111e+02
9.237500000000000000e+01  6.149432692307692196e+04  2.034463377701132458e+02
9.250000000000000000e+01  6.457937500000000000e+04  2.657699971897693558e+02
9.262500000000000000e+01  5.694281250000000000e+04  2.495620186884915483e+02
9.275000000000000000e+01  6.329312500000000000e+04  2.631099683948709753e+02
9.287500000000000000e+01  5.959625000000000000e+04  2.553103962581625979e+02
9.300000000000000000e+01  6.280859375000000000e+04  2.621009336382884385e+02
9.312500000000000000e+01  5.730375000000000000e+04  2.503517057311573524e+02
9.325000000000000000e+01  6.677125000000000000e+04  2.702425848890214866e+02
9.337500000000000000e+01  5.842921875000000000e+04  2.527982555474078197e+02
9.350000000000000000e+01  6.249618421052632038e+04  2.399213932327584757e+02
9.362500000000000000e+01  6.013170731707316736e+04  2.265655429907032783e+02
9.375000000000000000e+01  6.094500000000000000e+04  2.086435785188292300e+02
9.387500000000000000e+01  6.524437500000000000e+04  2.671348632362499984e+02
9.400000000000000000e+01  5.846531250000000000e+04  2.528763246072573736e+02
9.412500000000000000e+01  6.320781250000000000e+04  2.629325862685623747e+02
9.425000000000000000e+01  6.022406250000000000e+04  2.566516478797184391e+02
9.437500000000000000e+01  6.356109375000000000e+04  2.636663541088670968e+02
9.450000000000000000e+01  5.983031250000000000e+04  2.558112669466984244e+02
9.462500000000000000e+01  6.339484375000000000e+04  2.633213063000457055e+02
9.475000000000000000e+01  6.025028169014084415e+04  2.437246113411165140e+02
9.487500000000000000e+01  6.409666666666666424e+04  2.445885433857349369e+02
9.500000000000000000e+01  6.277848101265822334e+04  2.358527128593497650e+02
9.512500000000000000e+01  6.010642105263158010e+04  2.104493806791905115e+02
9.525000000000000000e+01  6.582406250000000000e+04  2.683189675728777388e+02
9.537500000000000000e+01  5.901656250000000000e+04  2.540656711056710151e+02
9.550000000000000000e+01  6.680625000000000000e+04  2.703134031776818915e+02
9.562500000000000000e+01  6.120734375000000000e+04  2.587383470353061057e+02
9.575000000000000000e+01  6.485828125000000000e+04  2.663432843478271366e+02
9.587500000000000000e+01  6.023062500000000000e+04  2.566656309164707750e+02
9.600000000000000000e+01  6.572176470588234952e+04  2.601052821175823624e+02
9.612500000000000000e+01  6.098246575342465803e+04  2.418188103184527904e+02
9.625000000000000000e+01  6.466273972602739377e+04  2.490087686419380475e+02
9.637500000000000000e+01  6.279818181818182347e+04  2.389335811441060287e+02
9.650000000000000000e+01  6.350528735632183816e+04  2.260447040249565305e+02
9.662500000000000000e+01  6.723700000000000000e+04  2.593009834150267920e+02
9.675000000000000000e+01  6.220046875000000000e+04  2.608289912860770983e+02
9.687500000000000000e+01  6.882968750000000000e+04  2.743765126666730794e+02
9.700000000000000000e+01  6.168750000000000000e+04  2.597512331539544448e+02
9.712500000000000000e+01  6.992125000000000000e+04  2.765436081118130005e+02
9.725000000000000000e+01  6.465597014925373514e+04  2.599057782904653777e+02
9.737500000000000000e+01  7.032100000000000000e+04  2.651810702142971650e+02
9.750000000000000000e+01  6.686166666666665697e+04  2.549596010119017819e+02
9.762500000000000000e+01  7.076513888888889051e+04  2.622964745977722032e+02
9.775000000000000000e+01  7.086800000000000000e+04  2.571837216206863559e+02
9.787500000000000000e+01  7.207353658536584408e+04  2.480447334010445104e+02
9.800000000000000000e+01  7.409216216216215980e+04  2.647398353547628176e+02
9.812500000000000000e+01  6.938421875000000000e+04  2.754795623232556636e+02
9.825000000000000000e+01  7.819875000000000000e+04  2.924549244114381850e+02
9.837500000000000000e+01  7.080062500000000000e+04  2.782771704501646468e+02
9.850000000000000000e+01  8.073651515151516651e+04  2.926254214553308657e+02
9.862500000000000000e+01  6.972608695652174356e+04  2.659635500513023771e+02
9.875000000000000000e+01  8.082600000000000000e+04  2.842991382329535099e+02
9.887500000000000000e+01  7.207830985915492056e+04  2.665766726410057004e+02
9.900000000000000000e+01  7.576819444444445253e+04  2.714102473683394692e+02
9.912500000000000000e+01  7.710452054794521246e+04  2.719114591577878173e+02
9.925000000000000000e+01  7.451500000000000000e+04  2.585970531491723818e+02
9.937500000000000000e+01  8.042000000000000000e+04  2.703869281401948683e+02
9.950000000000000000e+01  6.961281250000000000e+04  2.759329876471368834e+02
9.962500000000000000e+01  7.801718750000000000e+04  2.921152149890946248e+02
9.975000000000000000e+01  7.101123076923076587e+04  2.765386648121644839e+02
9.987500000000000000e+01  7.773855072463768010e+04  2.808294791992350383e+02
1.000000000000000000e+02  7.009637681159420754e+04  2.666688326944167216e+02
1.001250000000000000e+02  7.298057971014492796e+04  2.720997414022319845e+02
1.002500000000000000e+02  6.865600000000000000e+04  2.620228997625970919e+02
1.003750000000000000e+02  7.279309859154929291e+04  2.678952102629107230e+02
1.005000000000000000e+02  6.956082191780822177e+04  2.582676092803310439e+02
1.006250000000000000e+02  6.785947368421053397e+04  2.500042935919390175e+02
1.007500000000000000e+02  7.072602564102564065e+04  2.519366473803050042e+02
1.008750000000000000e+02  6.498953125000000000e+04  2.666126399942198759e+02
1.010000000000000000e+02  7.110578125000000000e+04  2.788762238739392956e+02
1.011250000000000000e+02  6.219397058823529369e+04  2.530280715993801550e+02
1.012500000000000000e+02  6.949072463768115267e+04  2.655142869770888865e+02
1.013750000000000000e+02  6.378521739130435162e+04  2.543808971439444520e+02
1.015000000000000000e+02  6.807956521739131131e+04  2.628045387409828777e+02
1.016250000000000000e+02  6.463739130434783146e+04  2.560745303449122048e+02
1.017500000000000000e+02  6.623971830985914858e+04  2.555518822682530526e+02
1.018750000000000000e+02  6.519859154929577926e+04  2.535356020906624224e+02
1.020000000000000000e+02  6.414146666666665988e+04  2.446740053395310497e+02
1.021250000000000000e+02  6.834481012658227701e+04  2.460867581102746158e+02
1.022500000000000000e+02  6.425453125000000000e+04  2.651007234141157483e+02
1.023750000000000000e+02  6.809044117647058738e+04  2.647510173938386515e+02
1.025000000000000000e+02  8.659720588235293690e+04  2.985702304750953999e+02
1.026250000000000000e+02  2.053264705882352791e+04  1.453841409607890398e+02
1.027500000000000000e+02  8.145838235294117476e+04  2.895759263613390999e+02
1.028750000000000000e+02  6.770014492753622471e+04  2.620711858412236097e+02
1.030000000000000000e+02  6.445579710144927958e+04  2.557145656555895243e+02
1.031250000000000000e+02  6.455200000000000000e+04  2.540708562586429480e+02
1.032500000000000000e+02  6.592028169014085142e+04  2.549349466402138944e+02
1.033750000000000000e+02  6.554205479452054715e+04  2.506961222144767873e+02
1.035000000000000000e+02  6.613775000000000000e+04  2.405629465441425623e+02
1.036250000000000000e+02  6.330820895522387582e+04  2.571826294262349961e+02
1.037500000000000000e+02  6.587000000000000000e+04  2.623345249582574752e+02
1.038750000000000000e+02  6.310602941176470631e+04  2.548766154443086975e+02
1.040000000000000000e+02  6.607485294117646117e+04  2.608030501525204841e+02
1.041250000000000000e+02  6.275294117647058738e+04  2.541625777272394373e+02
1.042500000000000000e+02  6.676250000000000000e+04  2.621566381787355908e+02
1.043750000000000000e+02  6.362391304347826372e+04  2.540590457743249715e+02
1.045000000000000000e+02  6.645100000000000000e+04  2.577809147318707232e+02
1.046250000000000000e+02  6.516200000000000000e+04  2.552684861082542511e+02
1.047500000000000000e+02  6.391863013698630675e+04  2.475718827283463952e+02
1.048750000000000000e+02  6.637280487804877339e+04  2.380330050250619252e+02
1.050000000000000000e+02  6.288676470588234952e+04  2.544334400831108383e+02
1.051250000000000000e+02  6.753850746268656803e+04  2.656362545608848791e+02
1.052500000000000000e+02  6.190298507462686393e+04  2.543123286939301408e+02
1.053750000000000000e+02  6.559308823529411166e+04  2.598505276361831307e+02
1.055000000000000000e+02  6.405308823529411166e+04  2.567820137687912734e+02
1.056250000000000000e+02  6.601205882352941262e+04  2.606790938402961615e+02
1.057500000000000000e+02  6.394808823529411166e+04  2.565714605326585911e+02
1.058750000000000000e+02  6.490826086956521613e+04  2.566105225871641551e+02
1.060000000000000000e+02  6.608788732394366525e+04  2.552588333623773451e+02
1.061250000000000000e+02  6.407013698630136787e+04  2.478651198900264490e+02
1.062500000000000000e+02  6.632500000000000000e+04  2.350974975054675440e+02
1.063750000000000000e+02  6.229164179104477080e+04  2.551094270733415499e+02
1.065000000000000000e+02  6.871074626865671598e+04  2.679316085269715018e+02
1.066250000000000000e+02  6.274298507462686393e+04  2.560319754757754254e+02
1.067500000000000000e+02  6.654838235294117476e+04  2.617359121638889405e+02
1.068750000000000000e+02  6.396850746268656803e+04  2.585203454099242890e+02
1.070000000000000000e+02  6.769720588235293690e+04  2.639854165915427302e+02
1.071250000000000000e+02  6.482617647058823786e+04  2.583269802396241630e+02
1.072500000000000000e+02  6.490217391304347984e+04  2.565984901147598976e+02
1.073750000000000000e+02  6.445638888888889051e+04  2.503316473040820256e+02
1.075000000000000000e+02  6.521698630136986321e+04  2.500736615067563662e+02
1.076250000000000000e+02  6.746083333333332848e+04  2.371020057087478961e+02
1.077500000000000000e+02  6.253089552238805481e+04  2.555988778666176131e+02
1.078750000000000000e+02  6.615835820895522193e+04  2.629081070557255657e+02
1.080000000000000000e+02  6.394761194029850594e+04  2.584781187026728730e+02
1.081250000000000000e+02  6.700671641791044385e+04  2.645883919468894305e+02
1.082500000000000000e+02  6.427955882352941262e+04  2.572355614666155930e+02
1.083750000000000000e+02  6.695761194029850594e+04  2.644914251303358128e+02
1.085000000000000000e+02  6.423632352941176214e+04  2.571490368689522370e+02
1.086250000000000000e+02  6.555500000000000000e+04  2.560371066857302367e+02
1.087500000000000000e+02  6.557541666666665697e+04  2.524953015697813328e+02
1.088750000000000000e+02  6.559191780821917928e+04  2.507914662466168920e+02
1.090000000000000000e+02  6.597987341772152286e+04  2.417916023722245313e+02
1.091250000000000000e+02  6.571638888888889051e+04  2.527665595801298082e+02
1.092500000000000000e+02  6.667970149253730779e+04  2.639419628788165255e+02
1.093750000000000000e+02  6.407969696969696815e+04  2.606977463804787476e+02
1.095000000000000000e+02  6.740794117647058738e+04  2.634208186185384193e+02
1.096250000000000000e+02  6.635895522388059180e+04  2.633063837555831128e+02
1.097500000000000000e+02  6.553985074626865389e+04  2.616762712378358060e+02
1.098750000000000000e+02  6.373855072463768010e+04  2.542878247903130671e+02
1.100000000000000000e+02  6.637380281690139964e+04  2.558103995612875963e+02
1.101250000000000000e+02  6.638563380281689751e+04  2.558331973689432459e+02
1.102500000000000000e+02  6.589493150684931607e+04  2.513700869694048947e+02
1.103750000000000000e+02  6.699090909090908826e+04  2.467809280440467887e+02
1.105000000000000000e+02  6.535890410958903522e+04  2.503456046127453192e+02
1.106250000000000000e+02  6.789582089552238176e+04  2.663380038201532898e+02
1.107500000000000000e+02  6.487537313432835799e+04  2.603463857788393625e+02
1.108750000000000000e+02  6.844223880597014795e+04  2.674075852756497511e+02
1.110000000000000000e+02  6.608731343283581373e+04  2.627669059644440495e+02
1.111250000000000000e+02  6.809867647058823786e+04  2.647670272517391936e+02
1.112500000000000000e+02  6.682100000000000000e+04  2.584975821937218825e+02
1.113750000000000000e+02  6.739800000000000000e+04  2.596112478302895283e+02
1.115000000000000000e+02  6.869236111111110949e+04  2.584264691728302523e+02
1.116250000000000000e+02  6.831901408450704184e+04  2.595318370634207668e+02
1.117500000000000000e+02  6.838626666666666279e+04  2.526404208004376812e+02
1.118750000000000000e+02  6.813118421052632038e+04  2.505043043735881554e+02
1.120000000000000000e+02  7.128015151515151956e+04  2.749548339234791001e+02
1.121250000000000000e+02  7.122343283582090226e+04  2.727866231485115804e+02
1.122500000000000000e+02  6.386820895522387582e+04  2.583175942622913794e+02
1.123750000000000000e+02  6.849705882352941262e+04  2.655403513605645003e+02
1.125000000000000000e+02  7.299681159420289623e+04  2.721299990811670568e+02
1.126250000000000000e+02  6.980600000000000000e+04  2.642082511959079625e+02
1.127500000000000000e+02  6.978492753623187309e+04  2.660757472931844632e+02
1.128750000000000000e+02  7.079859154929577198e+04  2.641995993336062725e+02
1.130000000000000000e+02  7.161291666666665697e+04  2.638629738737162711e+02
1.131250000000000000e+02  7.292013513513513317e+04  2.626375948125318018e+02
1.132500000000000000e+02  6.952013157894737378e+04  2.530448579570510788e+02
1.133750000000000000e+02  7.467119402985075430e+04  2.793110816449910203e+02
1.135000000000000000e+02  6.897863636363636761e+04  2.704794997400252896e+02
1.136250000000000000e+02  7.355661764705882524e+04  2.751727595127371728e+02
1.137500000000000000e+02  7.231913043478260806e+04  2.708638657599369708e+02
1.138750000000000000e+02  7.443130434782609518e+04  2.747908639376346969e+02
1.140000000000000000e+02  7.046260869565217581e+04  2.673645562207627790e+02
1.141250000000000000e+02  7.325100000000000000e+04  2.706492194705168686e+02
1.142500000000000000e+02  7.225400000000000000e+04  2.688010416646483236e+02
1.143750000000000000e+02  7.276056338028168830e+04  2.678353350716700447e+02
1.145000000000000000e+02  7.294863013698630675e+04  2.644820243934304926e+02
1.146250000000000000e+02  7.237371794871793827e+04  2.548544143586298674e+02
1.147500000000000000e+02  7.537196969696969609e+04  2.827365697259949116e+02
1.148750000000000000e+02  7.134880597014926025e+04  2.730266079075976791e+02
1.150000000000000000e+02  7.376579710144926503e+04  2.735596217000211254e+02
1.151250000000000000e+02  7.278376811594203173e+04  2.717325989553216345e+02
1.152500000000000000e+02  7.368735294117647572e+04  2.754171890563144984e+02
1.153750000000000000e+02  7.202289855072463979e+04  2.703085434732838621e+02
1.155000000000000000e+02  7.429840579710144084e+04  2.745454320998885578e+02
1.156250000000000000e+02  7.189300000000000000e+04  2.681287004406652272e+02
1.157500000000000000e+02  7.265704225352114008e+04  2.676447339856177905e+02
1.158750000000000000e+02  7.363243243243242614e+04  2.639172236698436222e+02
1.160000000000000000e+02  7.241181818181819108e+04  2.565714824758097166e+02
1.161250000000000000e+02  7.499298507462686393e+04  2.799122718437236017e+02
1.162500000000000000e+02  7.093676470588234952e+04  2.702279410764332965e+02
1.163750000000000000e+02  7.486397058823530097e+04  2.776073703562723836e+02
1.165000000000000000e+02  7.269088235294117476e+04  2.735486236137350033e+02
1.166250000000000000e+02  7.403971014492753602e+04  2.740670527852449823e+02
1.167500000000000000e+02  7.271072463768116722e+04  2.715962136253349399e+02
1.168750000000000000e+02  7.430000000000000000e+04  2.725802634087801835e+02
1.170000000000000000e+02  8.226014492753623927e+04  2.888811536618108562e+02
1.171250000000000000e+02  8.343408450704225106e+04  2.868082226091833036e+02
1.172500000000000000e+02  6.413847222222222626e+04  2.497135318596634477e+02
1.173750000000000000e+02  8.368101265822786081e+04  2.723008129535029411e+02
1.175000000000000000e+02  4.662102941176470631e+04  2.190713038240507444e+02
1.176250000000000000e+02  6.331970149253731506e+04  2.572059719507471982e+02
1.177500000000000000e+02  8.487246376811593655e+04  2.934322740853504570e+02
1.178750000000000000e+02  7.413205882352941262e+04  2.762470153590979294e+02
1.180000000000000000e+02  7.628044117647058738e+04  2.802213117591412583e+02
1.181250000000000000e+02  7.508260869565217581e+04  2.759905115123788732e+02
1.182500000000000000e+02  7.623304347826086450e+04  2.780968719625179801e+02
1.183750000000000000e+02  7.551700000000000000e+04  2.748035662068452893e+02
1.185000000000000000e+02  7.504599999999998545e+04  2.739452500044488943e+02
1.186250000000000000e+02  7.470150684931507567e+04  2.676407702692213206e+02
1.187500000000000000e+02  7.470400000000000000e+04  2.556677531484954216e+02
1.188750000000000000e+02  7.809283582089553238e+04  2.856388103219337609e+02
1.190000000000000000e+02  7.426176470588236407e+04  2.764885788889938567e+02
1.191250000000000000e+02  7.592426470588236407e+04  2.795663272192824138e+02
1.192500000000000000e+02  7.320558823529411166e+04  2.745153798453308696e+02
1.193750000000000000e+02  7.674637681159420754e+04  2.790316167429723464e+02
1.195000000000000000e+02  7.438941176470588834e+04  2.767261022024095496e+02
1.196250000000000000e+02  7.569264705882352428e+04  2.791395733035412263e+02
1.197500000000000000e+02  7.280400000000000000e+04  2.698221636559902663e+02
1.198750000000000000e+02  7.414971830985914858e+04  2.703800215994940004e+02
1.200000000000000000e+02  7.357095890410958964e+04  2.656077838459504505e+02
1.201250000000000000e+02  7.348564102564103086e+04  2.568046966130065698e+02
1.202500000000000000e+02  7.510000000000000000e+04  2.740437921208944090e+02
1.203750000000000000e+02  7.133731343283581373e+04  2.730046180873001731e+02
1.205000000000000000e+02  7.473529411764706310e+04  2.773686914622127802e+02
1.206250000000000000e+02  7.108602941176469903e+04  2.705120976642245409e+02
1.207500000000000000e+02  7.320147058823530097e+04  2.745076593053479996e+02
1.208750000000000000e+02  7.094246376811593655e+04  2.682733967745016912e+02
1.210000000000000000e+02  7.392926470588236407e+04  2.758689088032405721e+02
1.211250000000000000e+02  7.128267605633802305e+04  2.651012914027991769e+02
1.212500000000000000e+02  7.308000000000000000e+04  2.684226224172472826e+02
1.213750000000000000e+02  7.075347222222221899e+04  2.622748520042040923e+02
1.215000000000000000e+02  7.095636363636363239e+04  2.539798911803194983e+02
1.216250000000000000e+02  7.331464788732393936e+04  2.688532075554513199e+02
1.217500000000000000e+02  6.905500000000000000e+04  2.666196343328163607e+02
1.218750000000000000e+02  7.180537313432835799e+04  2.738987752721193374e+02
1.220000000000000000e+02  6.959338235294117476e+04  2.676569568305527582e+02
1.221250000000000000e+02  7.169955882352941262e+04  2.716769577589579967e+02
1.222500000000000000e+02  7.018735294117646117e+04  2.687967389147626136e+02
1.223750000000000000e+02  7.128661971830985567e+04  2.651086245690035526e+02
1.225000000000000000e+02  6.968855072463768010e+04  2.658919512144866530e+02
1.226250000000000000e+02  7.115647887323943723e+04  2.648665228854853808e+02
1.227500000000000000e+02  7.071150684931506112e+04  2.603949970967988179e+02
1.228750000000000000e+02  7.040013513513513317e+04  2.580595327150846288e+02
1.230000000000000000e+02  7.182000000000000000e+04  2.606488784511413428e+02
1.231250000000000000e+02  6.917358208955223381e+04  2.688324881050023123e+02
1.232500000000000000e+02  7.166641791044776619e+04  2.736336273121236786e+02
1.233750000000000000e+02  6.907250000000000000e+04  2.666534157246950940e+02
1.235000000000000000e+02  7.132279411764706310e+04  2.709622175809782334e+02
1.236250000000000000e+02  6.936300000000000000e+04  2.633685630442631123e+02
1.237500000000000000e+02  7.099623188405796827e+04  2.683750412779258454e+02
1.238750000000000000e+02  6.940855072463768010e+04  2.653572530563889131e+02
1.240000000000000000e+02  7.029069444444445253e+04  2.614157132888552724e+02
1.241250000000000000e+02  7.120676056338027411e+04  2.649600883959116118e+02
1.242500000000000000e+02  7.017452054794519790e+04  2.594043872833789806e+02
1.243750000000000000e+02  7.069066666666667152e+04  2.568617440483412224e+02
1.245000000000000000e+02  6.579477611940298812e+04  2.621846884755439646e+02
1.246250000000000000e+02  7.218338235294117476e+04  2.725920450240259925e+02
1.247500000000000000e+02  6.809558823529411166e+04  2.647610236684758434e+02
1.248750000000000000e+02  7.148200000000000000e+04  2.673611789321703327e+02
1.250000000000000000e+02  6.844661764705882524e+04  2.654425615085260119e+02
1.251250000000000000e+02  6.926943661971831170e+04  2.613308453892018974e+02
1.252500000000000000e+02  6.873086956521739194e+04  2.640586471300146059e+02
1.253750000000000000e+02  6.917500000000000000e+04  2.630114065967482020e+02
1.255000000000000000e+02  6.963126760563379503e+04  2.620124911653663844e+02
1.256250000000000000e+02  6.892219178082191502e+04  2.570793125487038537e+02
1.257500000000000000e+02  7.161093333333333430e+04  2.585282791323051583e+02
1.258750000000000000e+02  6.762104477611940820e+04  2.657985190913777842e+02
1.260000000000000000e+02  7.016130434782609518e+04  2.667923065712740254e+02
1.261250000000000000e+02  6.759529411764706310e+04  2.637866391678323907e+02
1.262500000000000000e+02  6.925600000000000000e+04  2.631653472628947839e+02
1.263750000000000000e+02  6.745220588235293690e+04  2.635072945682101135e+02
1.265000000000000000e+02  6.952000000000000000e+04  2.636664559628319466e+02
1.266250000000000000e+02  6.833115942028985592e+04  2.632896999097285970e+02
1.267500000000000000e+02  6.852500000000000000e+04  2.617728022541684822e+02
1.268750000000000000e+02  6.869267605633802305e+04  2.602406070863486889e+02
1.270000000000000000e+02  6.775805555555554747e+04  2.566629839803141522e+02
1.271250000000000000e+02  6.868197368421053397e+04  2.515148357530388807e+02
1.272500000000000000e+02  6.688100000000000000e+04  2.586136113973895476e+02
1.273750000000000000e+02  6.976074626865671598e+04  2.699710387675378911e+02
1.275000000000000000e+02  6.715573529411765048e+04  2.629275641298164601e+02
1.276250000000000000e+02  6.976400000000000000e+04  2.641287564806225419e+02
1.277500000000000000e+02  6.765294117647058738e+04  2.638990973156479640e+02
1.278750000000000000e+02  6.937101449275363120e+04  2.652854905839890307e+02
1.280000000000000000e+02  6.698492753623187309e+04  2.606831862385482168e+02
1.281250000000000000e+02  6.820267605633802305e+04  2.593107691267796326e+02
1.282500000000000000e+02  6.793700000000000000e+04  2.606472712306806443e+02
1.283750000000000000e+02  6.759219178082191502e+04  2.545867837786571783e+02
1.285000000000000000e+02  7.010223684210526699e+04  2.541020458850964872e+02
1.286250000000000000e+02  6.602927536231884733e+04  2.588169650198042859e+02
1.287500000000000000e+02  7.048073529411765048e+04  2.693579367623790972e+02
1.288750000000000000e+02  6.592558823529411166e+04  2.605083033697150086e+02
1.290000000000000000e+02  6.854420289855072042e+04  2.636998239352034261e+02
1.291250000000000000e+02  6.724529411764706310e+04  2.631028256895260711e+02
1.292500000000000000e+02  6.824300000000000000e+04  2.612336119261838121e+02
1.293750000000000000e+02  6.749623188405796827e+04  2.616762085923120367e+02
1.295000000000000000e+02  6.758956521739131131e+04  2.618570681375344975e+02
1.296250000000000000e+02  6.798458333333334303e+04  2.570916620296839028e+02
1.297500000000000000e+02  6.708236111111110949e+04  2.553800348331051850e+02
1.298750000000000000e+02  6.879743589743589109e+04  2.484779439425238365e+02
1.300000000000000000e+02  6.631882352941176214e+04  2.612840928235581259e+02
1.301250000000000000e+02  6.978485294117646117e+04  2.680249029771616733e+02
1.302500000000000000e+02  6.707235294117646117e+04  2.627642844911619022e+02
1.303750000000000000e+02  6.864463768115942366e+04  2.638929470497942020e+02
1.305000000000000000e+02  6.628898550724636880e+04  2.593254623868123190e+02
1.306250000000000000e+02  6.826338235294117476e+04  2.650870213585221222e+02
1.307500000000000000e+02  6.727800000000000000e+04  2.593800300717077221e+02
1.308750000000000000e+02  6.695000000000000000e+04  2.587469806587122321e+02
1.310000000000000000e+02  6.658069444444445253e+04  2.544233297279880617e+02
1.311250000000000000e+02  6.594788732394366525e+04  2.549883209884480664e+02
1.312500000000000000e+02  6.557139240506329224e+04  2.410419751342872701e+02
1.313750000000000000e+02  6.267925373134328402e+04  2.559019098805397618e+02
1.315000000000000000e+02  6.753147058823530097e+04  2.636620759825323717e+02
1.316250000000000000e+02  6.237411764705881797e+04  2.533942590490777889e+02
1.317500000000000000e+02  6.439300000000000000e+04  2.740897055101972910e+02
1.318750000000000000e+02  6.597111111111110949e+04  3.203462632762581848e+02
1.320000000000000000e+02  1.683079999999999927e+04  2.170857894934626984e+02
