# DMC at SINQ, PSI: Sample name = Unknown, wavelength = 2.450 AA, T = 0.0 K
# Filelist='dmc:2022:578'
#   0.000   0.125 132.000     140., sample="Unknown"
0.000000000000000000e+00  1.190000000000000000e+04  9.126883367283709276e+02
1.250000000000000000e-01  1.106000000000000000e+04  6.221736092120911508e+02
2.500000000000000000e-01  9.870000000000000000e+03  3.717257053258491055e+02
3.750000000000000000e-01  1.013600000000000000e+04  3.767014733180638473e+02
5.000000000000000000e-01  9.745555555555556566e+03  2.753157558733222459e+02
6.250000000000000000e-01  9.691111111111111313e+03  2.745456403623545611e+02
7.500000000000000000e-01  1.028461538461538476e+04  2.353267902829001628e+02
8.750000000000000000e-01  9.995000000000000000e+03  2.235508890610815911e+02
1.000000000000000000e+00  9.900000000000000000e+03  2.224859546128698753e+02
1.125000000000000000e+00  1.008000000000000000e+04  1.878297101099823294e+02
1.250000000000000000e+00  9.823333333333333940e+03  1.954529402486743095e+02
1.375000000000000000e+00  9.811666666666666060e+03  1.691666666666666572e+02
1.500000000000000000e+00  9.703333333333333940e+03  1.798456128028828118e+02
1.625000000000000000e+00  9.774074074074072996e+03  1.591860296756463242e+02
1.750000000000000000e+00  9.893333333333333940e+03  1.698692307498787670e+02
1.875000000000000000e+00  9.490645161290323813e+03  1.463915608014388567e+02
2.000000000000000000e+00  9.910000000000000000e+03  1.574007623869719623e+02
2.125000000000000000e+00  9.458000000000001819e+03  1.375354499756335542e+02
2.250000000000000000e+00  9.878000000000001819e+03  1.405560386465128033e+02
2.375000000000000000e+00  9.442432432432433416e+03  1.336565051116328959e+02
2.500000000000000000e+00  9.605750000000000000e+03  1.296536250939402066e+02
2.625000000000000000e+00  9.765000000000000000e+03  1.341199384682860511e+02
2.750000000000000000e+00  9.539090909090909918e+03  1.231902043438559815e+02
2.875000000000000000e+00  9.576666666666666060e+03  1.263372910549815060e+02
3.000000000000000000e+00  9.460425531914894236e+03  1.187012867371905713e+02
3.125000000000000000e+00  9.767916666666666060e+03  1.193519102160590677e+02
3.250000000000000000e+00  9.635208333333333940e+03  1.185383713660311429e+02
3.375000000000000000e+00  9.758269230769230489e+03  1.146129646104869408e+02
3.500000000000000000e+00  9.631250000000000000e+03  1.097226617431421829e+02
3.625000000000000000e+00  9.623157894736843446e+03  1.087102258486421817e+02
3.750000000000000000e+00  9.593684210526316747e+03  1.085436200406249014e+02
3.875000000000000000e+00  9.694426229508197139e+03  1.054739371167638069e+02
4.000000000000000000e+00  9.650666666666667879e+03  1.061089586750860150e+02
4.125000000000000000e+00  9.569218750000000000e+03  1.023050976628853164e+02
4.250000000000000000e+00  9.617343750000000000e+03  1.025620286780760750e+02
4.375000000000000000e+00  9.518923076923076223e+03  1.012479527150751011e+02
4.500000000000000000e+00  9.799027777777777374e+03  9.760549452632466227e+01
4.625000000000000000e+00  9.812352941176472086e+03  1.005034902731911330e+02
4.750000000000000000e+00  9.620000000000000000e+03  9.351713503660462834e+01
4.875000000000000000e+00  9.544647887323944815e+03  9.700626900844656575e+01
5.000000000000000000e+00  9.562168674698794348e+03  8.980244765688550501e+01
5.125000000000000000e+00  9.596447368421051578e+03  9.401506848634996061e+01
5.250000000000000000e+00  9.525121951219511175e+03  9.017317597642434635e+01
5.375000000000000000e+00  9.570256410256410163e+03  9.267519436305549618e+01
5.500000000000000000e+00  9.714352941176470267e+03  8.944302858983365923e+01
5.625000000000000000e+00  9.863777777777777374e+03  8.758896711626316289e+01
5.750000000000000000e+00  9.625813953488372135e+03  8.851533678330906696e+01
5.875000000000000000e+00  9.642688172043010127e+03  8.519352870844014092e+01
6.000000000000000000e+00  9.696206896551724640e+03  8.832635947911994379e+01
6.125000000000000000e+00  9.737938144329897113e+03  8.382945808186956071e+01
6.250000000000000000e+00  9.707659574468085339e+03  8.502416241135709640e+01
6.375000000000000000e+00  9.959405940594058848e+03  8.308163799955410411e+01
6.500000000000000000e+00  9.745714285714286234e+03  8.343395285970764519e+01
6.625000000000000000e+00  9.708000000000000000e+03  8.044874144447507547e+01
6.750000000000000000e+00  9.806176470588236043e+03  8.203492518679888690e+01
6.875000000000000000e+00  9.720366972477064337e+03  7.900909761072139759e+01
7.000000000000000000e+00  9.776226415094339245e+03  8.034922884512144492e+01
7.125000000000000000e+00  9.802568807339450359e+03  7.934247081127597312e+01
7.250000000000000000e+00  9.940000000000000000e+03  8.300065608711227583e+01
7.375000000000000000e+00  1.012229166666666606e+04  8.591180171321697401e+01
7.500000000000000000e+00  1.041858695652173810e+04  8.903474449779861288e+01
7.625000000000000000e+00  1.032763440860215087e+04  8.816738776066382854e+01
7.750000000000000000e+00  1.067579545454545405e+04  9.215264521792718710e+01
7.875000000000000000e+00  1.086788888888888869e+04  9.193912371311684240e+01
8.000000000000000000e+00  1.113651162790697708e+04  9.520820598998417950e+01
8.125000000000000000e+00  1.125712643678160930e+04  9.517067853379477071e+01
8.250000000000000000e+00  1.150574712643678140e+04  9.621589103644802776e+01
8.375000000000000000e+00  1.176700000000000000e+04  1.014698231002695650e+02
8.500000000000000000e+00  1.186294117647058738e+04  9.884068478545729874e+01
8.625000000000000000e+00  1.209600000000000000e+04  1.028785691968934799e+02
8.750000000000000000e+00  1.188566265060240949e+04  1.001201919587525282e+02
8.875000000000000000e+00  1.263181818181818198e+04  1.071609587227557654e+02
9.000000000000000000e+00  1.249243902439024350e+04  1.032679873723841411e+02
9.125000000000000000e+00  1.291500000000000000e+04  1.025290656464086965e+02
9.250000000000000000e+00  1.273907894736841990e+04  1.083206452545665428e+02
9.375000000000000000e+00  1.279793103448275724e+04  1.014750505780298511e+02
9.500000000000000000e+00  1.315112676056338023e+04  1.138679042710923710e+02
9.625000000000000000e+00  1.308250000000000000e+04  1.044130419695419789e+02
9.750000000000000000e+00  1.347310810810810835e+04  1.128930112724269605e+02
9.875000000000000000e+00  1.319975308641975244e+04  1.068044663171958319e+02
1.000000000000000000e+01  1.360692307692307622e+04  1.105049375497750503e+02
1.012500000000000000e+01  1.334328947368421177e+04  1.108596945857984366e+02
1.025000000000000000e+01  1.363454545454545587e+04  1.113330199101508668e+02
1.037500000000000000e+01  1.373960000000000036e+04  1.132414529519409996e+02
1.050000000000000000e+01  1.388646341463414683e+04  1.088774450328570538e+02
1.062500000000000000e+01  1.386839999999999964e+04  1.137709980618962362e+02
1.075000000000000000e+01  1.396721518987341733e+04  1.112475323743475712e+02
1.087500000000000000e+01  1.397946666666666715e+04  1.142256635884520506e+02
1.100000000000000000e+01  1.389454545454545405e+04  1.123895233492770274e+02
1.112500000000000000e+01  1.394289473684210498e+04  1.133231657217387891e+02
1.125000000000000000e+01  1.370959459459459504e+04  1.138794776389460424e+02
1.137500000000000000e+01  1.400945945945945823e+04  1.151181626876044248e+02
1.150000000000000000e+01  1.372368421052631675e+04  1.124288017238630601e+02
1.162500000000000000e+01  1.396972972972973002e+04  1.149548137478304852e+02
1.175000000000000000e+01  1.354826666666666642e+04  1.124502062643234552e+02
1.187500000000000000e+01  1.403410256410256261e+04  1.122261441435230438e+02
1.200000000000000000e+01  1.402684931506849171e+04  1.159758744429435353e+02
1.212500000000000000e+01  1.390987500000000000e+04  1.103228925699467027e+02
1.225000000000000000e+01  1.402400000000000000e+04  1.184229707446996969e+02
1.237500000000000000e+01  1.397696202531645577e+04  1.112863419106317053e+02
1.250000000000000000e+01  1.385800000000000000e+04  1.177200067957864178e+02
1.262500000000000000e+01  1.389359999999999854e+04  1.138743166829114273e+02
1.275000000000000000e+01  1.408166666666666606e+04  1.170064496481251979e+02
1.287500000000000000e+01  1.391727272727272612e+04  1.124814034216433498e+02
1.300000000000000000e+01  1.414300000000000000e+04  1.189243456992721946e+02
1.312500000000000000e+01  1.404573333333333358e+04  1.144960746537238805e+02
1.325000000000000000e+01  1.429773333333333358e+04  1.155186180280525718e+02
1.337500000000000000e+01  1.399716216216216162e+04  1.150676270809704675e+02
1.350000000000000000e+01  1.416454545454545405e+04  1.134762508374868304e+02
1.362500000000000000e+01  1.431855072463768010e+04  1.205241301670789227e+02
1.375000000000000000e+01  1.432666666666666606e+04  1.133898803124201038e+02
1.387500000000000000e+01  1.471400000000000000e+04  1.213012778168474171e+02
1.400000000000000000e+01  1.507554054054054177e+04  1.194179486395076140e+02
1.412500000000000000e+01  1.625577464788732505e+04  1.265970776731511620e+02
1.425000000000000000e+01  1.615526315789473665e+04  1.219829809663190758e+02
1.437500000000000000e+01  1.791391304347826008e+04  1.348092540282179925e+02
1.450000000000000000e+01  2.122891891891891646e+04  1.417088909990002890e+02
1.462500000000000000e+01  1.621328947368421177e+04  1.222018532440817182e+02
1.475000000000000000e+01  1.730493333333333430e+04  1.270876512927637378e+02
1.487500000000000000e+01  1.699753424657534197e+04  1.276675582985809285e+02
1.500000000000000000e+01  1.685915492957746392e+04  1.289251800202171125e+02
1.512500000000000000e+01  1.617189189189189165e+04  1.236840150278573702e+02
1.525000000000000000e+01  1.610900000000000000e+04  1.269212354178763889e+02
1.537500000000000000e+01  1.491851351351351332e+04  1.187943911876647434e+02
1.550000000000000000e+01  1.530014705882352791e+04  1.254996071072855841e+02
1.562500000000000000e+01  1.478565789473684345e+04  1.166977682458983878e+02
1.575000000000000000e+01  1.446838235294117658e+04  1.220406612993416360e+02
1.587500000000000000e+01  1.412413333333333321e+04  1.148151751487774419e+02
1.600000000000000000e+01  1.393567567567567676e+04  1.148146153998824985e+02
1.612500000000000000e+01  1.377526315789473665e+04  1.126398791826033090e+02
1.625000000000000000e+01  1.393000000000000000e+04  1.171913086235553862e+02
1.637500000000000000e+01  1.394917808219178005e+04  1.156543306080800306e+02
1.650000000000000000e+01  1.414788732394366161e+04  1.181042814858825096e+02
1.662500000000000000e+01  1.411410958904109611e+04  1.163360549791920562e+02
1.675000000000000000e+01  1.394380281690140873e+04  1.172493549147754095e+02
1.687500000000000000e+01  1.416430555555555657e+04  1.173492761948568273e+02
1.700000000000000000e+01  1.389056338028169012e+04  1.170253034284946665e+02
1.712500000000000000e+01  1.442600000000000000e+04  1.201082844769668725e+02
1.725000000000000000e+01  1.380847222222222263e+04  1.158658860466820784e+02
1.737500000000000000e+01  1.406328767123287616e+04  1.161264153510221036e+02
1.750000000000000000e+01  1.431453333333333285e+04  1.155864659513003261e+02
1.762500000000000000e+01  1.418600000000000000e+04  1.191049956970739316e+02
1.775000000000000000e+01  1.405039999999999964e+04  1.145150936194293365e+02
1.787500000000000000e+01  1.343600000000000000e+04  1.159137610467368091e+02
1.800000000000000000e+01  1.402205479452054715e+04  1.159560518789272692e+02
1.812500000000000000e+01  1.376300000000000182e+04  1.173158130858751775e+02
1.825000000000000000e+01  1.391347222222222263e+04  1.163055754584278247e+02
1.837500000000000000e+01  1.361600000000000000e+04  1.166876171665185780e+02
1.850000000000000000e+01  1.422700000000000000e+04  1.192769885602415769e+02
1.862500000000000000e+01  1.366774647887323954e+04  1.160829143644309767e+02
1.875000000000000000e+01  1.402090909090909190e+04  1.128994286599163246e+02
1.887500000000000000e+01  1.380600000000000000e+04  1.174989361653968274e+02
1.900000000000000000e+01  1.392346666666666715e+04  1.139966471241832409e+02
1.912500000000000000e+01  1.409400000000000000e+04  1.187181536244562778e+02
1.925000000000000000e+01  1.386000000000000000e+04  1.160818676624389951e+02
1.937500000000000000e+01  1.389600000000000000e+04  1.178812962263310027e+02
1.950000000000000000e+01  1.395109589041095751e+04  1.156622807253334884e+02
1.962500000000000000e+01  1.393811594202898414e+04  1.189122265469293467e+02
1.975000000000000000e+01  1.354943661971830988e+04  1.155794076997685522e+02
1.987500000000000000e+01  1.397700000000000000e+04  1.182243629714281923e+02
2.000000000000000000e+01  1.355900000000000000e+04  1.164431191612454199e+02
2.012500000000000000e+01  1.413720000000000073e+04  1.148682723818896818e+02
2.025000000000000000e+01  1.359676056338028138e+04  1.157810731228274506e+02
2.037500000000000000e+01  1.367893333333333248e+04  1.129911697631476244e+02
2.050000000000000000e+01  1.388400000000000000e+04  1.178303865732434872e+02
2.062500000000000000e+01  1.366971830985915403e+04  1.160912876406249694e+02
2.075000000000000000e+01  1.389943661971830988e+04  1.170626751221948325e+02
2.087500000000000000e+01  1.369472222222222263e+04  1.153876651622908156e+02
2.100000000000000000e+01  1.368550724637681196e+04  1.178297412842229193e+02
2.112500000000000000e+01  1.366577464788732505e+04  1.160745404842134292e+02
2.125000000000000000e+01  1.372710144927536203e+04  1.180086647180630735e+02
2.137500000000000000e+01  1.374464788732394481e+04  1.164090258414768897e+02
2.150000000000000000e+01  1.383958333333333394e+04  1.159963381446283535e+02
2.162500000000000000e+01  1.360947368421052670e+04  1.119599997822728454e+02
2.175000000000000000e+01  1.363376811594202991e+04  1.176067980951869174e+02
2.187500000000000000e+01  1.378810810810810835e+04  1.142051004427091812e+02
2.200000000000000000e+01  1.331623188405797009e+04  1.162291734115960651e+02
2.212500000000000000e+01  1.352361111111111131e+04  1.146645335180568281e+02
2.225000000000000000e+01  1.353100000000000000e+04  1.163228266506621651e+02
2.237500000000000000e+01  1.382154929577464827e+04  1.167342262893940443e+02
2.250000000000000000e+01  1.350594202898550793e+04  1.170541768552522086e+02
2.262500000000000000e+01  1.366478873239436507e+04  1.160703533175550035e+02
2.275000000000000000e+01  1.349985507246376801e+04  1.170277964672399378e+02
2.287500000000000000e+01  1.370561643835616451e+04  1.146401846090228673e+02
2.300000000000000000e+01  1.368208333333333394e+04  1.153344071080393718e+02
2.312500000000000000e+01  1.384178082191780959e+04  1.152082484641085074e+02
2.325000000000000000e+01  1.350027777777777737e+04  1.145655710138451440e+02
2.337500000000000000e+01  1.371901408450704366e+04  1.163004236192672920e+02
2.350000000000000000e+01  1.350400000000000000e+04  1.162067123706715961e+02
2.362500000000000000e+01  1.346500000000000000e+04  1.160387866189577153e+02
2.375000000000000000e+01  1.367760563380281747e+04  1.161247747077786840e+02
2.387500000000000000e+01  1.350279411764705947e+04  1.178979860774019670e+02
2.400000000000000000e+01  1.363152777777777737e+04  1.151211285055660909e+02
2.412500000000000000e+01  1.334400000000000000e+04  1.155162326255491934e+02
2.425000000000000000e+01  1.383159420289855007e+04  1.184569630283381798e+02
2.437500000000000000e+01  1.341479999999999927e+04  1.118949507350532713e+02
2.450000000000000000e+01  1.351958904109589093e+04  1.138595164729844242e+02
2.462500000000000000e+01  1.345300000000000000e+04  1.159870682446969994e+02
2.475000000000000000e+01  1.340600000000000000e+04  1.157842821802683204e+02
2.487500000000000000e+01  1.356521126760563493e+04  1.156466685814052511e+02
2.500000000000000000e+01  1.344197183098591631e+04  1.151201471683850031e+02
2.512500000000000000e+01  1.385695652173913004e+04  1.185655176624971716e+02
2.525000000000000000e+01  1.327830985915492965e+04  1.144171814476935936e+02
2.537500000000000000e+01  1.363800000000000000e+04  1.167818479045437954e+02
2.550000000000000000e+01  1.318800000000000000e+04  1.148390177596447330e+02
2.562500000000000000e+01  1.347602941176470449e+04  1.177810817491208013e+02
2.575000000000000000e+01  1.328319999999999891e+04  1.113447499136503183e+02
2.587500000000000000e+01  1.379189189189189165e+04  1.142207696614757424e+02
2.600000000000000000e+01  1.335376811594202991e+04  1.163928734381429564e+02
2.612500000000000000e+01  1.359166666666666606e+04  1.149526875300024074e+02
2.625000000000000000e+01  1.342478260869565383e+04  1.167019480363903199e+02
2.637500000000000000e+01  1.341929577464788781e+04  1.150230046938775530e+02
2.650000000000000000e+01  1.375943661971830988e+04  1.164716349063171918e+02
2.662500000000000000e+01  1.349072463768115813e+04  1.169882147314563952e+02
2.675000000000000000e+01  1.348565217391304213e+04  1.169662190904603989e+02
2.687500000000000000e+01  1.341200000000000000e+04  1.158101895344274084e+02
2.700000000000000000e+01  1.376600000000000000e+04  1.173285983893100308e+02
2.712500000000000000e+01  1.358851351351351332e+04  1.133754791369801040e+02
2.725000000000000000e+01  1.366069444444444343e+04  1.152442220238244630e+02
2.737500000000000000e+01  1.365756756756756658e+04  1.136631896087003781e+02
2.750000000000000000e+01  1.375970149253731324e+04  1.198991556664040701e+02
2.762500000000000000e+01  1.397375000000000000e+04  1.165572403490138385e+02
2.775000000000000000e+01  1.406408450704225288e+04  1.177539757705019809e+02
2.787500000000000000e+01  1.475985507246376801e+04  1.223673404775267386e+02
2.800000000000000000e+01  1.511400000000000000e+04  1.229390092688240230e+02
2.812500000000000000e+01  1.677323529411764684e+04  1.314023049415216349e+02
2.825000000000000000e+01  1.811000000000000000e+04  1.345734000462201436e+02
2.837500000000000000e+01  2.228700000000000000e+04  1.492883116657161509e+02
2.850000000000000000e+01  2.718932432432432324e+04  1.603734115045386659e+02
2.862500000000000000e+01  3.232055555555555475e+04  1.772646675050586964e+02
2.875000000000000000e+01  3.685694444444444525e+04  1.892964353391229793e+02
2.887500000000000000e+01  3.861000000000000000e+04  1.964942747257537690e+02
2.900000000000000000e+01  3.823420289855072042e+04  1.969475102181756938e+02
2.912500000000000000e+01  4.104563380281690479e+04  2.011654202005587422e+02
2.925000000000000000e+01  2.963563380281690115e+04  1.709334095775880655e+02
2.937500000000000000e+01  2.504764705882352791e+04  1.605750371650389070e+02
2.950000000000000000e+01  2.208300000000000000e+04  1.486034992858512851e+02
2.962500000000000000e+01  1.818399999999999636e+04  1.348480626483005835e+02
2.975000000000000000e+01  1.704550724637681196e+04  1.315011162815009129e+02
2.987500000000000000e+01  1.449851351351351332e+04  1.171102475462784582e+02
3.000000000000000000e+01  1.372291666666666606e+04  1.155063831008357624e+02
3.012500000000000000e+01  1.406416666666666606e+04  1.169337221265549545e+02
3.025000000000000000e+01  1.357199999999999818e+04  1.164989270336855895e+02
3.037500000000000000e+01  1.345600000000000000e+04  1.160000000000000142e+02
3.050000000000000000e+01  1.314300000000000000e+04  1.146429238985119383e+02
3.062500000000000000e+01  1.351400000000000000e+04  1.162497311824848936e+02
3.075000000000000000e+01  1.307900000000000000e+04  1.143634557015483040e+02
3.087500000000000000e+01  1.334260869565217399e+04  1.163442299221103298e+02
3.100000000000000000e+01  1.297942028985507204e+04  1.147498489336162635e+02
3.112500000000000000e+01  1.347652173913043407e+04  1.169266165096433241e+02
3.125000000000000000e+01  1.291643835616438446e+04  1.112907265722510459e+02
3.137500000000000000e+01  1.343432432432432324e+04  1.127304068613149610e+02
3.150000000000000000e+01  1.313535211267605519e+04  1.137995920614067558e+02
3.162500000000000000e+01  1.281000000000000000e+04  1.131812705353672897e+02
3.175000000000000000e+01  1.325236111111111131e+04  1.135087660453403231e+02
3.187500000000000000e+01  1.321782608695652198e+04  1.157989152965991053e+02
3.200000000000000000e+01  1.334057971014492796e+04  1.163353834612434810e+02
3.212500000000000000e+01  1.352084507042253608e+04  1.154573974798104956e+02
3.225000000000000000e+01  1.393313432835821004e+04  1.206524181883753357e+02
3.237500000000000000e+01  1.419300000000000000e+04  1.191343779099887001e+02
3.250000000000000000e+01  1.538478260869565383e+04  1.249309828368839419e+02
3.262500000000000000e+01  1.559486486486486501e+04  1.214573966314682423e+02
3.275000000000000000e+01  1.722394366197183263e+04  1.303125201435741189e+02
3.287500000000000000e+01  1.765166666666666424e+04  1.310013075987892250e+02
3.300000000000000000e+01  1.768042253521126622e+04  1.320280367933420109e+02
3.312500000000000000e+01  1.744100000000000000e+04  1.320643782403112709e+02
3.325000000000000000e+01  1.686400000000000000e+04  1.298614646459834034e+02
3.337500000000000000e+01  1.579100000000000000e+04  1.256622457224125782e+02
3.350000000000000000e+01  1.492420289855072406e+04  1.230467215905482590e+02
3.362500000000000000e+01  1.421800000000000182e+04  1.192392552811363373e+02
3.375000000000000000e+01  1.379823529411764684e+04  1.191808111398166261e+02
3.387500000000000000e+01  1.336391304347826190e+04  1.164370771818800989e+02
3.400000000000000000e+01  1.298791666666666606e+04  1.123705530986819667e+02
3.412500000000000000e+01  1.294720000000000073e+04  1.099274912537047442e+02
3.425000000000000000e+01  1.253304347826086996e+04  1.127593977881223566e+02
3.437500000000000000e+01  1.267788732394366161e+04  1.118003825156635145e+02
3.450000000000000000e+01  1.271042253521126622e+04  1.119437470317304673e+02
3.462500000000000000e+01  1.291652173913043407e+04  1.144714711461515577e+02
3.475000000000000000e+01  1.265100000000000000e+04  1.124766642464115733e+02
3.487500000000000000e+01  1.259605633802816919e+04  1.114389837257617302e+02
3.500000000000000000e+01  1.273895522388059726e+04  1.153661831042977326e+02
3.512500000000000000e+01  1.265478260869565383e+04  1.133057158981773824e+02
3.525000000000000000e+01  1.271260869565217399e+04  1.135642963320174061e+02
3.537500000000000000e+01  1.260887323943661977e+04  1.114956657251791654e+02
3.550000000000000000e+01  1.273621621621621489e+04  1.097623437086724465e+02
3.562500000000000000e+01  1.278351351351351332e+04  1.099659619293776132e+02
3.575000000000000000e+01  1.254318840579710013e+04  1.128050253535344609e+02
3.587500000000000000e+01  1.260394366197183081e+04  1.114738683670061903e+02
3.600000000000000000e+01  1.253200000000000000e+04  1.119464157532522393e+02
3.612500000000000000e+01  1.261600000000000000e+04  1.123209686567917771e+02
3.625000000000000000e+01  1.250117647058823604e+04  1.134409896443427925e+02
3.637500000000000000e+01  1.287695652173913004e+04  1.142960151537454152e+02
3.650000000000000000e+01  1.248333333333333394e+04  1.125355553046656922e+02
3.662500000000000000e+01  1.258558823529411711e+04  1.138233394131261207e+02
3.675000000000000000e+01  1.240200000000000000e+04  1.113642671596235090e+02
3.687500000000000000e+01  1.283026315789473665e+04  1.087076245965726287e+02
3.700000000000000000e+01  1.251638888888888869e+04  1.103118824957360999e+02
3.712500000000000000e+01  1.249154929577464827e+04  1.109757269935622048e+02
3.725000000000000000e+01  1.251100000000000000e+04  1.118525815526847822e+02
3.737500000000000000e+01  1.231100000000000000e+04  1.109549458113517346e+02
3.750000000000000000e+01  1.246200000000000000e+04  1.116333283567232826e+02
3.762500000000000000e+01  1.221043478260869597e+04  1.112986864502230162e+02
3.775000000000000000e+01  1.253304347826086996e+04  1.127593977881223566e+02
3.787500000000000000e+01  1.254567164179104475e+04  1.144876331016347280e+02
3.800000000000000000e+01  1.246200000000000000e+04  1.116333283567232826e+02
3.812500000000000000e+01  1.222768115942028999e+04  1.113772594825652504e+02
3.825000000000000000e+01  1.245909090909090810e+04  1.064257782728965225e+02
3.837500000000000000e+01  1.245802816901408369e+04  1.108267250419997367e+02
3.850000000000000000e+01  1.237500000000000000e+04  1.112429773064349376e+02
3.862500000000000000e+01  1.221253521126760643e+04  1.097293382513570918e+02
3.875000000000000000e+01  1.219521739130434617e+04  1.112293112103897812e+02
3.887500000000000000e+01  1.231100000000000000e+04  1.109549458113517346e+02
3.900000000000000000e+01  1.238500000000000000e+04  1.112879148874665560e+02
3.912500000000000000e+01  1.232405797101449207e+04  1.118153276918075250e+02
3.925000000000000000e+01  1.243500000000000000e+04  1.115123311566931648e+02
3.937500000000000000e+01  1.246424242424242402e+04  1.149767413697861400e+02
3.950000000000000000e+01  1.217492753623188401e+04  1.111367435252386002e+02
3.962500000000000000e+01  1.232653333333333285e+04  1.072602649840305133e+02
3.975000000000000000e+01  1.227109589041095751e+04  1.084749016062068705e+02
3.987500000000000000e+01  1.243338028169014251e+04  1.107170368532036662e+02
4.000000000000000000e+01  1.255500000000000000e+04  1.120490963818986074e+02
4.012500000000000000e+01  1.275700000000000000e+04  1.129468901740990816e+02
4.025000000000000000e+01  1.254623188405797009e+04  1.128187100247694445e+02
4.037500000000000000e+01  1.266802816901408369e+04  1.117569024134802191e+02
4.050000000000000000e+01  1.306362318840579610e+04  1.151214622071033773e+02
4.062500000000000000e+01  1.262161764705882342e+04  1.139861469455904057e+02
4.075000000000000000e+01  1.296014492753623199e+04  1.146646114321756613e+02
4.087500000000000000e+01  1.258867647058823604e+04  1.138373034681499121e+02
4.100000000000000000e+01  1.230864864864864830e+04  1.079041995904804168e+02
4.112500000000000000e+01  1.236472222222222263e+04  1.096414963234695250e+02
4.125000000000000000e+01  1.228111111111111131e+04  1.092701658084331342e+02
4.137500000000000000e+01  1.216225352112676046e+04  1.095032153672154891e+02
4.150000000000000000e+01  1.213100000000000000e+04  1.101408189546455105e+02
4.162500000000000000e+01  1.229057971014492796e+04  1.116633514353309096e+02
4.175000000000000000e+01  1.222869565217391209e+04  1.113818796994997058e+02
4.187500000000000000e+01  1.223072463768115813e+04  1.113911195584644958e+02
4.200000000000000000e+01  1.218608695652173810e+04  1.111876652889760067e+02
4.212500000000000000e+01  1.261647058823529551e+04  1.139629029666897964e+02
4.225000000000000000e+01  1.229666666666666606e+04  1.116909988631722257e+02
4.237500000000000000e+01  1.230770270270270339e+04  1.079000531766763515e+02
4.250000000000000000e+01  1.227589041095890389e+04  1.084960910076173946e+02
4.262500000000000000e+01  1.246098591549295634e+04  1.108398803301987243e+02
4.275000000000000000e+01  1.261900000000000000e+04  1.123343224486621494e+02
4.287500000000000000e+01  1.263943661971830988e+04  1.116307143470728249e+02
4.300000000000000000e+01  1.256043478260869597e+04  1.128825498884268086e+02
4.312500000000000000e+01  1.272884057971014590e+04  1.136367745500580639e+02
4.325000000000000000e+01  1.284347826086956593e+04  1.141473417428944117e+02
4.337500000000000000e+01  1.261826086956521794e+04  1.131420974505110877e+02
4.350000000000000000e+01  1.313463768115942003e+04  1.154339410615539379e+02
4.362500000000000000e+01  1.286223880597014795e+04  1.159230777133525692e+02
4.375000000000000000e+01  1.349226666666666642e+04  1.122175664600788849e+02
4.387500000000000000e+01  1.458972602739725880e+04  1.182799570740936161e+02
4.400000000000000000e+01  1.147125000000000000e+04  1.056058907763514156e+02
4.412500000000000000e+01  1.365202898550724603e+04  1.176855321526432618e+02
4.425000000000000000e+01  1.274000000000000000e+04  1.136865765214144375e+02
4.437500000000000000e+01  1.277600000000000000e+04  1.130309692075583285e+02
4.450000000000000000e+01  1.340246376811594200e+04  1.166048985825679409e+02
4.462500000000000000e+01  1.325942028985507204e+04  1.159809717208053428e+02
4.475000000000000000e+01  1.311637681159420390e+04  1.153536702023543654e+02
4.487500000000000000e+01  1.303420289855072406e+04  1.149917579213139476e+02
4.500000000000000000e+01  1.311333333333333394e+04  1.153402862945643790e+02
4.512500000000000000e+01  1.310821917808219041e+04  1.121138940509020756e+02
4.525000000000000000e+01  1.271794520547945285e+04  1.104322865970930110e+02
4.537500000000000000e+01  1.273211267605633839e+04  1.120392214601996272e+02
4.550000000000000000e+01  1.310873239436619770e+04  1.136842221270952393e+02
4.562500000000000000e+01  1.251376811594202991e+04  1.126726545091757714e+02
4.575000000000000000e+01  1.303300000000000000e+04  1.141621653613840692e+02
4.587500000000000000e+01  1.299768115942028999e+04  1.148305418873242303e+02
4.600000000000000000e+01  1.302101449275362393e+04  1.149335671060507167e+02
4.612500000000000000e+01  1.265867647058823604e+04  1.141533638769750212e+02
4.625000000000000000e+01  1.321800000000000000e+04  1.149695611890382025e+02
4.637500000000000000e+01  1.290676470588235316e+04  1.152665408196409373e+02
4.650000000000000000e+01  1.386200000000000000e+04  1.177369950355452204e+02
4.662500000000000000e+01  1.415197368421052670e+04  1.141696658656672980e+02
4.675000000000000000e+01  1.565900000000000000e+04  1.251359260963852904e+02
4.687500000000000000e+01  1.730069444444444525e+04  1.296924037820466822e+02
4.700000000000000000e+01  1.886855072463768374e+04  1.383546456810051950e+02
4.712500000000000000e+01  2.117500000000000000e+04  1.455163221085524867e+02
4.725000000000000000e+01  2.194200000000000000e+04  1.481283227475421143e+02
4.737500000000000000e+01  2.361300000000000000e+04  1.536652205282639727e+02
4.750000000000000000e+01  2.362808823529411893e+04  1.559584303810487143e+02
4.762500000000000000e+01  2.377117647058823422e+04  1.564299482826839949e+02
4.775000000000000000e+01  2.180808823529411893e+04  1.498315807670589379e+02
4.787500000000000000e+01  2.144434782608695605e+04  1.474962219032758526e+02
4.800000000000000000e+01  1.858039473684210316e+04  1.308186587155824725e+02
4.812500000000000000e+01  1.688166666666666424e+04  1.281121831891154841e+02
4.825000000000000000e+01  1.515549295774647908e+04  1.222376182296361407e+02
4.837500000000000000e+01  1.386700000000000000e+04  1.177582268888250496e+02
4.850000000000000000e+01  1.332563380281690115e+04  1.146208917243215097e+02
4.862500000000000000e+01  1.271260869565217399e+04  1.135642963320174061e+02
4.875000000000000000e+01  1.259691176470588289e+04  1.138745325766484626e+02
4.887500000000000000e+01  1.220161764705882342e+04  1.120735863365015064e+02
4.900000000000000000e+01  1.244044117647058738e+04  1.131650851861576257e+02
4.912500000000000000e+01  1.192028985507246398e+04  1.099683940005446345e+02
4.925000000000000000e+01  1.235552238805970046e+04  1.136167009457399928e+02
4.937500000000000000e+01  1.179589743589743739e+04  1.028885892674518914e+02
4.950000000000000000e+01  1.198069444444444343e+04  1.079254250700140148e+02
4.962500000000000000e+01  1.161704225352112735e+04  1.070206612766490508e+02
4.975000000000000000e+01  1.182319444444444343e+04  1.072136762570112154e+02
4.987500000000000000e+01  1.200808823529411711e+04  1.111812362812991211e+02
5.000000000000000000e+01  1.181376811594202991e+04  1.094759432323277792e+02
5.012500000000000000e+01  1.202579710144927594e+04  1.104539904936124657e+02
5.025000000000000000e+01  1.215632352941176396e+04  1.118653764877560519e+02
5.037500000000000000e+01  1.212852941176470449e+04  1.117374192696963178e+02
5.050000000000000000e+01  1.187014705882352791e+04  1.105408025624107182e+02
5.062500000000000000e+01  1.237044117647058738e+04  1.128462568349562076e+02
5.075000000000000000e+01  1.229818181818181984e+04  1.057363007167178921e+02
5.087500000000000000e+01  1.215569444444444343e+04  1.087107918535786411e+02
5.100000000000000000e+01  1.220684931506849171e+04  1.081905632361406475e+02
5.112500000000000000e+01  1.207652173913043407e+04  1.106866920335083790e+02
5.125000000000000000e+01  1.202200000000000000e+04  1.096448813214734628e+02
5.137500000000000000e+01  1.182176470588235316e+04  1.103152920850961181e+02
5.150000000000000000e+01  1.208362318840579610e+04  1.107192312209166687e+02
5.162500000000000000e+01  1.175485294117647209e+04  1.100026541045015165e+02
5.175000000000000000e+01  1.207652173913043407e+04  1.106866920335083790e+02
5.187500000000000000e+01  1.152260869565217399e+04  1.081184675463663325e+02
5.200000000000000000e+01  1.182176470588235316e+04  1.103152920850961181e+02
5.212500000000000000e+01  1.168090909090909008e+04  1.030485723552869501e+02
5.225000000000000000e+01  1.194472222222222263e+04  1.077632793799263027e+02
5.237500000000000000e+01  1.164070422535211219e+04  1.071295974262638140e+02
5.250000000000000000e+01  1.187666666666666606e+04  1.097669908056670778e+02
5.262500000000000000e+01  1.209900000000000000e+04  1.099954544515363182e+02
5.275000000000000000e+01  1.176514705882352791e+04  1.100508100644777301e+02
5.287500000000000000e+01  1.195422535211267495e+04  1.085626822667723275e+02
5.300000000000000000e+01  1.182382352941176396e+04  1.103248976658609877e+02
5.312500000000000000e+01  1.252695652173913004e+04  1.127320123844912558e+02
5.325000000000000000e+01  1.209970588235294053e+04  1.116045679386605087e+02
5.337500000000000000e+01  1.340191176470588289e+04  1.174567394411168237e+02
5.350000000000000000e+01  1.361640000000000146e+04  1.127326039795054129e+02
5.362500000000000000e+01  1.453602739726027539e+04  1.180620870912071041e+02
5.375000000000000000e+01  1.470788732394366161e+04  1.204189934410386371e+02
5.387500000000000000e+01  1.532898550724637607e+04  1.247042289479243209e+02
5.400000000000000000e+01  1.585746478873239357e+04  1.250364755351141781e+02
5.412500000000000000e+01  1.555420289855072406e+04  1.256169818494478250e+02
5.425000000000000000e+01  1.577333333333333394e+04  1.264987445279587064e+02
5.437500000000000000e+01  1.541132352941176396e+04  1.259547448525265025e+02
5.450000000000000000e+01  1.545478260869565383e+04  1.252148751760086043e+02
5.462500000000000000e+01  1.406588235294117658e+04  1.203311463216672905e+02
5.475000000000000000e+01  1.437820895522387946e+04  1.225643070237173760e+02
5.487500000000000000e+01  1.298407894736841990e+04  1.093573046627544301e+02
5.500000000000000000e+01  1.271027397260274120e+04  1.103989762014639098e+02
5.512500000000000000e+01  1.231704225352112735e+04  1.101978347571388355e+02
5.525000000000000000e+01  1.209900000000000000e+04  1.099954544515363182e+02
5.537500000000000000e+01  1.230200000000000000e+04  1.109143813939382710e+02
5.550000000000000000e+01  1.199434782608695787e+04  1.103094690133229676e+02
5.562500000000000000e+01  1.180732394366197150e+04  1.078935753714154089e+02
5.575000000000000000e+01  1.167352941176470449e+04  1.096214783339046619e+02
5.587500000000000000e+01  1.191544117647058738e+04  1.107515026025368314e+02
5.600000000000000000e+01  1.178925373134328402e+04  1.109825696408674673e+02
5.612500000000000000e+01  1.223764705882352791e+04  1.122389319918506772e+02
5.625000000000000000e+01  1.173256756756756658e+04  1.053488240374681482e+02
5.637500000000000000e+01  1.182337837837838015e+04  1.057557414252861179e+02
5.650000000000000000e+01  1.180042253521126622e+04  1.078620387389025552e+02
5.662500000000000000e+01  1.159535211267605519e+04  1.069207056382797276e+02
5.675000000000000000e+01  1.153000000000000000e+04  1.073778375643689316e+02
5.687500000000000000e+01  1.161600000000000000e+04  1.077775486824598374e+02
5.700000000000000000e+01  1.205927536231884187e+04  1.106076284395389848e+02
5.712500000000000000e+01  1.140382352941176396e+04  1.083477277279326501e+02
5.725000000000000000e+01  1.179911764705882342e+04  1.102095754416608742e+02
5.737500000000000000e+01  1.155411764705882342e+04  1.090593629024037483e+02
5.750000000000000000e+01  1.211522388059701370e+04  1.125064291126001450e+02
5.762500000000000000e+01  1.153541666666666606e+04  1.059008424231173251e+02
5.775000000000000000e+01  1.163473684210526335e+04  1.035191044500945452e+02
5.787500000000000000e+01  1.158253521126760643e+04  1.068615969959150505e+02
5.800000000000000000e+01  1.144305555555555657e+04  1.054760299842318005e+02
5.812500000000000000e+01  1.140300000000000000e+04  1.067848303833461188e+02
5.825000000000000000e+01  1.100200000000000000e+04  1.048904190095549183e+02
5.837500000000000000e+01  1.121647058823529551e+04  1.074540217116461491e+02
5.850000000000000000e+01  1.227264705882352791e+04  1.123993205781778215e+02
5.862500000000000000e+01  7.383432835820894979e+03  8.782957534954574896e+01
5.875000000000000000e+01  1.223478260869565383e+04  1.114095969774451333e+02
5.887500000000000000e+01  1.329373134328358174e+04  1.178514872422985320e+02
5.900000000000000000e+01  1.202718309859154942e+04  1.088934624003707796e+02
5.912500000000000000e+01  1.173545454545454595e+04  1.032888911806217180e+02
5.925000000000000000e+01  1.158111111111111131e+04  1.061103839416619650e+02
5.937500000000000000e+01  1.185070422535211219e+04  1.080915949472227879e+02
5.950000000000000000e+01  1.233500000000000000e+04  1.110630451590446910e+02
5.962500000000000000e+01  1.202985507246376801e+04  1.104726246549417681e+02
5.975000000000000000e+01  1.249500000000000000e+04  1.134129622221375513e+02
5.987500000000000000e+01  1.258985507246376801e+04  1.130146748886207035e+02
6.000000000000000000e+01  1.331132352941176396e+04  1.170591006499823550e+02
6.012500000000000000e+01  1.310358208955223745e+04  1.170055966430702341e+02
6.025000000000000000e+01  1.368043478260869597e+04  1.178079027628076432e+02
6.037500000000000000e+01  1.370746268656716529e+04  1.196713402303695233e+02
6.050000000000000000e+01  1.434135802469135706e+04  1.113272931233743606e+02
6.062500000000000000e+01  1.388138888888888869e+04  1.161714024753356398e+02
6.075000000000000000e+01  1.381300000000000000e+04  1.175287198943305071e+02
6.087500000000000000e+01  1.398300000000000000e+04  1.182497357290915829e+02
6.100000000000000000e+01  1.332637681159420390e+04  1.162734393892879012e+02
6.112500000000000000e+01  1.338521739130434617e+04  1.165298504639448112e+02
6.125000000000000000e+01  1.256865671641791050e+04  1.145924621879090637e+02
6.137500000000000000e+01  1.271869565217391209e+04  1.135914810831744859e+02
6.150000000000000000e+01  1.231176470588235316e+04  1.125783080017014157e+02
6.162500000000000000e+01  1.292597014925373151e+04  1.162099175288242634e+02
6.175000000000000000e+01  1.230072463768115813e+04  1.117094266803019593e+02
6.187500000000000000e+01  1.255275000000000000e+04  1.048029400828049376e+02
6.200000000000000000e+01  1.292472222222222263e+04  1.120968427766537303e+02
6.212500000000000000e+01  1.349700000000000000e+04  1.161765897244363117e+02
6.225000000000000000e+01  1.430000000000000000e+04  1.195826074310139830e+02
6.237500000000000000e+01  1.544014705882352791e+04  1.260724753113932763e+02
6.250000000000000000e+01  1.829333333333333212e+04  1.362294171839555190e+02
6.262500000000000000e+01  2.066217391304347620e+04  1.447813030362853510e+02
6.275000000000000000e+01  2.510463768115942003e+04  1.595884488610371648e+02
6.287500000000000000e+01  2.870104477611940092e+04  1.731651413651296707e+02
6.300000000000000000e+01  3.463558823529411893e+04  1.888234148799359389e+02
6.312500000000000000e+01  3.750681159420289623e+04  1.950650880445525388e+02
6.325000000000000000e+01  4.370064102564103086e+04  1.980366733647335025e+02
6.337500000000000000e+01  4.649847222222222626e+04  2.126190207714896871e+02
6.350000000000000000e+01  4.904338028169014433e+04  2.198923110223201149e+02
6.362500000000000000e+01  5.019507246376811963e+04  2.256602252991953321e+02
6.375000000000000000e+01  4.933600000000000000e+04  2.221170862405681703e+02
6.387500000000000000e+01  4.901826086956521613e+04  2.229992610915673197e+02
6.400000000000000000e+01  4.529720588235294417e+04  2.159385946133729419e+02
6.412500000000000000e+01  4.198681159420289623e+04  2.063863273331373591e+02
6.425000000000000000e+01  3.655955882352941262e+04  1.939970101970592680e+02
6.437500000000000000e+01  3.305318840579710377e+04  1.831180496887817526e+02
6.450000000000000000e+01  2.623196969696969609e+04  1.667986392097986652e+02
6.462500000000000000e+01  2.222272727272727207e+04  1.421354260515054762e+02
6.475000000000000000e+01  1.869383561643835492e+04  1.338865034145889013e+02
6.487500000000000000e+01  1.626267605633802850e+04  1.266239482913743473e+02
6.500000000000000000e+01  1.435400000000000000e+04  1.198081800212322747e+02
6.512500000000000000e+01  1.356681159420289987e+04  1.173176544774480874e+02
6.525000000000000000e+01  1.291100000000000000e+04  1.136265813971361212e+02
6.537500000000000000e+01  1.240521739130434617e+04  1.121829004376273531e+02
6.550000000000000000e+01  1.222838235294117658e+04  1.121964378108300195e+02
6.562500000000000000e+01  1.202173913043478206e+04  1.104353531880729520e+02
6.575000000000000000e+01  1.238373134328358174e+04  1.137463264310761701e+02
6.587500000000000000e+01  1.158075757575757598e+04  1.108269898141153789e+02
6.600000000000000000e+01  1.179776315789473665e+04  1.042418380657406516e+02
6.612500000000000000e+01  1.181133333333333212e+04  1.049948146867792218e+02
6.625000000000000000e+01  1.202422535211267495e+04  1.088800719390982152e+02
6.637500000000000000e+01  1.168100000000000000e+04  1.080786750473931335e+02
6.650000000000000000e+01  1.200400000000000000e+04  1.095627673984186998e+02
6.662500000000000000e+01  1.197000000000000000e+04  1.101974512448884553e+02
6.675000000000000000e+01  1.169900000000000000e+04  1.081619156635088359e+02
6.687500000000000000e+01  1.194220588235294053e+04  1.108758189680415001e+02
6.700000000000000000e+01  1.181432835820895525e+04  1.111005316613840250e+02
6.712500000000000000e+01  1.239417910447761096e+04  1.137942983983014926e+02
6.725000000000000000e+01  1.139303030303030209e+04  1.099250516855118036e+02
6.737500000000000000e+01  1.196539473684210498e+04  1.049797995342404420e+02
6.750000000000000000e+01  1.153506666666666570e+04  1.037596367679755360e+02
6.762500000000000000e+01  1.172549295774647908e+04  1.075190456133665862e+02
6.775000000000000000e+01  1.134680555555555657e+04  1.050315024759032809e+02
6.787500000000000000e+01  1.117300000000000182e+04  1.057024124606434867e+02
6.800000000000000000e+01  1.123144927536231990e+04  1.067437300385436316e+02
6.812500000000000000e+01  1.119900000000000000e+04  1.058253277812074771e+02
6.825000000000000000e+01  1.137865671641791050e+04  1.090327877667897383e+02
6.837500000000000000e+01  1.114909090909090992e+04  1.087418658494958521e+02
6.850000000000000000e+01  1.188014925373134429e+04  1.114095877168644080e+02
6.862500000000000000e+01  1.103910447761194155e+04  1.073936345311188489e+02
6.875000000000000000e+01  1.112337837837838015e+04  1.025773595012555290e+02
6.887500000000000000e+01  1.093842105263158010e+04  1.003736095587125732e+02
6.900000000000000000e+01  1.127972222222222263e+04  1.047205643841660816e+02
6.912500000000000000e+01  1.142084507042253608e+04  1.061130910755109511e+02
6.925000000000000000e+01  1.125816901408450758e+04  1.053546546352972229e+02
6.937500000000000000e+01  1.151200000000000000e+04  1.072939886480132685e+02
6.950000000000000000e+01  1.129470588235294053e+04  1.078281183837817423e+02
6.962500000000000000e+01  1.112373134328358174e+04  1.078044937194975006e+02
6.975000000000000000e+01  1.070791044776119270e+04  1.057703603308914779e+02
6.987500000000000000e+01  1.194388059701492421e+04  1.117080177102872938e+02
7.000000000000000000e+01  1.081181818181818198e+04  1.070844521385208452e+02
7.012500000000000000e+01  1.170726027397260259e+04  1.059534803049944856e+02
7.025000000000000000e+01  1.110038461538461524e+04  9.980923619180401829e+01
7.037500000000000000e+01  1.134958904109589093e+04  1.043224212413304315e+02
7.050000000000000000e+01  1.125126760563380230e+04  1.053223577774822388e+02
7.062500000000000000e+01  1.142971830985915403e+04  1.061543044903642681e+02
7.075000000000000000e+01  1.135955882352941262e+04  1.081372437914416622e+02
7.087500000000000000e+01  1.117941176470588289e+04  1.072763626950484621e+02
7.100000000000000000e+01  1.160119402985074521e+04  1.100938257984912809e+02
7.112500000000000000e+01  1.131388059701492421e+04  1.087219953162099699e+02
7.125000000000000000e+01  1.189268656716417900e+04  1.114683583844213643e+02
7.137500000000000000e+01  1.111537313432835799e+04  1.077639847490791993e+02
7.150000000000000000e+01  1.202400000000000000e+04  1.096540012949823790e+02
7.162500000000000000e+01  1.174703703703703650e+04  1.007559447495664529e+02
7.175000000000000000e+01  1.194890410958904249e+04  1.070413623594650971e+02
7.187500000000000000e+01  1.219069444444444343e+04  1.088671853370421019e+02
7.200000000000000000e+01  1.264565217391304213e+04  1.132648334447815444e+02
7.212500000000000000e+01  1.312602941176470449e+04  1.162415119496732245e+02
7.225000000000000000e+01  1.312294117647058738e+04  1.162278367457730610e+02
7.237500000000000000e+01  1.372104477611940274e+04  1.197306139437555288e+02
7.250000000000000000e+01  1.360264705882352791e+04  1.183331099629128005e+02
7.262500000000000000e+01  1.433014925373134429e+04  1.223592976760614448e+02
7.275000000000000000e+01  1.386731343283582100e+04  1.203670964794910105e+02
7.287500000000000000e+01  1.509179104477612054e+04  1.255688770460336343e+02
7.300000000000000000e+01  1.451166666666666606e+04  1.099684298130857059e+02
7.312500000000000000e+01  1.868520547945205180e+04  1.338555950371976166e+02
7.325000000000000000e+01  1.602014084507042207e+04  1.256761912954085858e+02
7.337500000000000000e+01  8.197101449275362029e+03  9.119155674186063720e+01
7.350000000000000000e+01  1.400926470588235316e+04  1.200887251290236009e+02
7.362500000000000000e+01  1.334220588235294053e+04  1.171948109022841749e+02
7.375000000000000000e+01  1.321147058823529551e+04  1.166192233407303860e+02
7.387500000000000000e+01  1.304779411764705947e+04  1.158945760946822361e+02
7.400000000000000000e+01  1.298552238805970046e+04  1.164773097603889482e+02
7.412500000000000000e+01  1.214656716417910320e+04  1.126518677424336659e+02
7.425000000000000000e+01  1.289671641791044749e+04  1.160783413567976794e+02
7.437500000000000000e+01  1.188060240963855358e+04  1.000988769405302037e+02
7.450000000000000000e+01  1.198229729729729661e+04  1.064641045211833159e+02
7.462500000000000000e+01  1.195400000000000000e+04  1.093343495887728807e+02
7.475000000000000000e+01  1.180869565217391209e+04  1.094524379302356323e+02
7.487500000000000000e+01  1.222768115942028999e+04  1.113772594825652504e+02
7.500000000000000000e+01  1.163647058823529551e+04  1.094473376706048100e+02
7.512500000000000000e+01  1.261750000000000000e+04  1.139675521417235444e+02
7.525000000000000000e+01  1.148617647058823604e+04  1.087382416186293597e+02
7.537500000000000000e+01  1.267835820895522374e+04  1.150914674941336386e+02
7.550000000000000000e+01  1.175279411764705947e+04  1.099930203825314265e+02
7.562500000000000000e+01  1.281104477611940274e+04  1.156921503244360849e+02
7.575000000000000000e+01  1.213074074074074088e+04  1.023882620015686911e+02
7.587500000000000000e+01  1.260958904109589093e+04  1.099608419017232848e+02
7.600000000000000000e+01  1.213070422535211219e+04  1.093610956248274135e+02
7.612500000000000000e+01  1.245086956521739194e+04  1.123891318154052783e+02
7.625000000000000000e+01  1.273492753623188401e+04  1.136639419667629340e+02
7.637500000000000000e+01  1.205014492753623199e+04  1.105657483540663435e+02
7.650000000000000000e+01  1.272558823529411711e+04  1.144546645716745559e+02
7.662500000000000000e+01  1.180220588235294053e+04  1.102239973180753765e+02
7.675000000000000000e+01  1.300764705882352791e+04  1.157161393820879596e+02
7.687500000000000000e+01  1.121776119402985205e+04  1.082591751709198178e+02
7.700000000000000000e+01  1.302318181818181802e+04  1.175264462354677448e+02
7.712500000000000000e+01  1.149683544303797316e+04  1.009310129737488921e+02
7.725000000000000000e+01  1.279486486486486501e+04  1.100147742253064109e+02
7.737500000000000000e+01  1.211680555555555657e+04  1.085367570155695631e+02
7.750000000000000000e+01  1.243100000000000000e+04  1.114943944779287932e+02
7.762500000000000000e+01  1.306057971014492796e+04  1.151080512998985341e+02
7.775000000000000000e+01  1.257565217391304213e+04  1.129509097020492305e+02
7.787500000000000000e+01  1.289014492753623199e+04  1.143545303962121409e+02
7.800000000000000000e+01  1.271117647058823604e+04  1.143898360960278922e+02
7.812500000000000000e+01  1.361397058823529551e+04  1.183823529411764639e+02
7.825000000000000000e+01  1.277500000000000000e+04  1.164012131562314210e+02
7.837500000000000000e+01  1.461796875000000000e+04  1.264452581962348745e+02
7.850000000000000000e+01  1.383696202531645577e+04  1.107275903419677547e+02
7.862500000000000000e+01  1.488573333333333358e+04  1.178700602829705559e+02
7.875000000000000000e+01  1.447444444444444343e+04  1.186270481096527902e+02
7.887500000000000000e+01  1.455901408450704366e+04  1.198080028550077003e+02
7.900000000000000000e+01  1.522144927536231990e+04  1.242660451993946964e+02
7.912500000000000000e+01  1.485500000000000000e+04  1.218810895914538435e+02
7.925000000000000000e+01  1.558838235294117658e+04  1.266762179213257440e+02
7.937500000000000000e+01  1.467666666666666606e+04  1.220220143280561018e+02
7.950000000000000000e+01  1.538537313432835799e+04  1.267843461900976223e+02
7.962500000000000000e+01  1.474484375000000000e+04  1.269928062984769923e+02
7.975000000000000000e+01  1.518234375000000000e+04  1.288630609467371642e+02
7.987500000000000000e+01  1.418636363636363603e+04  1.135636130760026106e+02
8.000000000000000000e+01  1.472782051282051179e+04  1.149664073510079447e+02
8.012500000000000000e+01  1.398833333333333394e+04  1.166180454240188169e+02
8.025000000000000000e+01  1.417791666666666606e+04  1.174056457251871137e+02
8.037500000000000000e+01  1.445400000000000000e+04  1.202247894570832614e+02
8.050000000000000000e+01  1.289200000000000000e+04  1.135429434178980728e+02
8.062500000000000000e+01  1.446565217391304213e+04  1.211416497612126193e+02
8.075000000000000000e+01  1.366235294117647209e+04  1.185925244322384486e+02
8.087500000000000000e+01  1.607156250000000000e+04  1.325830738984995776e+02
8.100000000000000000e+01  1.435546875000000000e+04  1.253048041589487411e+02
8.112500000000000000e+01  1.655937500000000000e+04  1.345801486336302162e+02
8.125000000000000000e+01  1.618289473684210498e+04  1.220872547972699778e+02
8.137500000000000000e+01  1.742650000000000000e+04  1.234835515362268836e+02
8.150000000000000000e+01  1.887410958904109430e+04  1.345305216289799262e+02
8.162500000000000000e+01  1.935111111111111313e+04  1.371626051331541873e+02
8.175000000000000000e+01  2.069436619718309885e+04  1.428387071166072531e+02
8.187500000000000000e+01  2.009295774647887447e+04  1.407478537726202035e+02
8.200000000000000000e+01  2.236246376811594018e+04  1.506205744442462446e+02
8.212500000000000000e+01  2.059203125000000000e+04  1.500750951346941520e+02
8.225000000000000000e+01  2.324437500000000000e+04  1.594475937612418193e+02
8.237500000000000000e+01  2.124937500000000000e+04  1.524516444852268648e+02
8.250000000000000000e+01  2.353968750000000000e+04  1.604572628556432790e+02
8.262500000000000000e+01  2.111602739726027357e+04  1.422963297117239847e+02
8.275000000000000000e+01  2.162916666666666788e+04  1.342546295498056566e+02
8.287500000000000000e+01  2.074613333333333503e+04  1.391512047298828634e+02
8.300000000000000000e+01  1.958369863013698341e+04  1.370360868435450925e+02
8.312500000000000000e+01  2.027277777777777737e+04  1.403910433814365319e+02
8.325000000000000000e+01  1.776915492957746392e+04  1.323589254332209180e+02
8.337500000000000000e+01  1.836734375000000000e+04  1.417366650749286521e+02
8.350000000000000000e+01  1.576750000000000000e+04  1.313228964232818043e+02
8.362500000000000000e+01  1.719265625000000000e+04  1.371293833335419663e+02
8.375000000000000000e+01  1.453265625000000000e+04  1.260757422085529527e+02
8.387500000000000000e+01  1.641171875000000000e+04  1.339787945266432985e+02
8.400000000000000000e+01  1.394093750000000000e+04  1.234823889897867133e+02
8.412500000000000000e+01  1.541712765957446754e+04  1.071486805634657742e+02
8.425000000000000000e+01  1.511363636363636397e+04  1.172163359838875181e+02
8.437500000000000000e+01  1.489973333333333358e+04  1.179254755249169051e+02
8.450000000000000000e+01  1.662547945205479482e+04  1.262625857903421007e+02
8.462500000000000000e+01  1.434030769230769147e+04  1.242715103473988734e+02
8.475000000000000000e+01  1.740484375000000000e+04  1.379729968202564692e+02
8.487500000000000000e+01  1.579593750000000000e+04  1.314412668861077407e+02
8.500000000000000000e+01  1.733484375000000000e+04  1.376952626329697011e+02
8.512500000000000000e+01  1.601140625000000000e+04  1.323347104350838777e+02
8.525000000000000000e+01  1.779640625000000000e+04  1.395163765868992982e+02
8.537500000000000000e+01  1.765203125000000000e+04  1.389493043512183306e+02
8.550000000000000000e+01  1.722947916666666424e+04  1.120855115184880191e+02
8.562500000000000000e+01  1.740550000000000000e+04  1.234091264858478780e+02
8.575000000000000000e+01  1.704454545454545587e+04  1.244790798580791602e+02
8.587500000000000000e+01  1.793880597014925297e+04  1.369015561935496521e+02
8.600000000000000000e+01  1.528953125000000000e+04  1.293171481462822214e+02
8.612500000000000000e+01  1.784343750000000000e+04  1.397006076064989770e+02
8.625000000000000000e+01  1.531906250000000000e+04  1.294419739086784773e+02
8.637500000000000000e+01  1.655937500000000000e+04  1.345801486336302162e+02
8.650000000000000000e+01  1.464421875000000000e+04  1.265587383700252389e+02
8.662500000000000000e+01  1.612187500000000000e+04  1.327904393442916557e+02
8.675000000000000000e+01  1.430734375000000000e+04  1.250945931148205261e+02
8.687500000000000000e+01  1.453410000000000036e+04  1.008656036515917407e+02
8.700000000000000000e+01  1.400494117647058738e+04  1.073940453137795430e+02
8.712500000000000000e+01  1.313732394366197150e+04  1.138081333300089568e+02
8.725000000000000000e+01  1.398687500000000000e+04  1.236856682532378215e+02
8.737500000000000000e+01  1.235937500000000000e+04  1.162672198267852224e+02
8.750000000000000000e+01  1.367515625000000000e+04  1.222996408352759659e+02
8.762500000000000000e+01  1.248843750000000000e+04  1.168727021832942796e+02
8.775000000000000000e+01  1.361281250000000000e+04  1.220205461054612783e+02
8.787500000000000000e+01  1.818796875000000000e+04  1.410428687325683370e+02
8.800000000000000000e+01  1.850625000000000000e+03  4.499023331513185298e+01
8.812500000000000000e+01  1.649812500000000000e+04  1.343310247811353406e+02
8.825000000000000000e+01  1.322100917431192647e+04  9.214421495935351913e+01
8.837500000000000000e+01  1.307566265060240949e+04  1.050127006399167868e+02
8.850000000000000000e+01  1.214718750000000000e+04  1.152648529610175672e+02
8.862500000000000000e+01  1.377250000000000000e+04  1.227341512171734479e+02
8.875000000000000000e+01  1.251687500000000000e+04  1.170056923027679119e+02
8.887500000000000000e+01  1.360843750000000000e+04  1.220009365358520625e+02
8.900000000000000000e+01  1.213843750000000000e+04  1.152233310385748126e+02
8.912500000000000000e+01  1.358328125000000000e+04  1.218881202873664051e+02
8.925000000000000000e+01  1.219640625000000000e+04  1.154981356383621431e+02
8.937500000000000000e+01  1.380750000000000000e+04  1.228900041703962103e+02
8.950000000000000000e+01  1.204437500000000000e+04  1.147760216955179260e+02
8.962500000000000000e+01  1.305992187500000000e+04  8.451121094500199149e+01
8.975000000000000000e+01  1.370796875000000000e+04  1.224462772823759593e+02
8.987500000000000000e+01  1.229703125000000000e+04  1.159736087637506472e+02
9.000000000000000000e+01  1.404375000000000000e+04  1.239368853993838258e+02
9.012500000000000000e+01  1.229812500000000000e+04  1.159787662408511864e+02
9.025000000000000000e+01  1.375171875000000000e+04  1.226415198161393363e+02
9.037500000000000000e+01  1.215921875000000000e+04  1.153219211937283859e+02
9.050000000000000000e+01  1.394203125000000000e+04  1.234872328610836689e+02
9.062500000000000000e+01  1.269734375000000000e+04  1.178461697577078553e+02
9.075000000000000000e+01  1.361937500000000000e+04  1.220499545524290568e+02
9.087500000000000000e+01  1.331500000000000000e+04  1.153906408683130564e+02
9.100000000000000000e+01  1.309860655737704838e+04  8.669252520467885859e+01
9.112500000000000000e+01  1.425265625000000000e+04  1.248552873267187664e+02
9.125000000000000000e+01  1.274546875000000000e+04  1.180692866299805388e+02
9.137500000000000000e+01  1.438062500000000000e+04  1.254145469782114333e+02
9.150000000000000000e+01  1.228718750000000000e+04  1.159271811445659068e+02
9.162500000000000000e+01  1.461906250000000000e+04  1.264499885700864752e+02
9.175000000000000000e+01  1.232328125000000000e+04  1.160973249786036234e+02
9.187500000000000000e+01  1.476453125000000000e+04  1.270775592096712359e+02
9.200000000000000000e+01  1.256062500000000000e+04  1.172099978404146299e+02
9.212500000000000000e+01  1.416078125000000000e+04  1.244522177069878381e+02
9.225000000000000000e+01  1.321488636363636397e+04  1.025272716189201674e+02
9.237500000000000000e+01  1.383307692307692378e+04  9.649209735553998257e+01
9.250000000000000000e+01  1.432921875000000000e+04  1.251901873463431514e+02
9.262500000000000000e+01  1.265468750000000000e+04  1.176480533333424887e+02
9.275000000000000000e+01  1.408859375000000000e+04  1.241346020014665328e+02
9.287500000000000000e+01  1.314906250000000000e+04  1.199240889453616035e+02
9.300000000000000000e+01  1.366421875000000000e+04  1.222507229337008852e+02
9.312500000000000000e+01  1.240968750000000000e+04  1.165036295706060798e+02
9.325000000000000000e+01  1.444515625000000000e+04  1.256956230281607674e+02
9.337500000000000000e+01  1.268531250000000000e+04  1.177903245044982583e+02
9.350000000000000000e+01  1.383236842105263167e+04  1.128731116572058397e+02
9.362500000000000000e+01  1.313609756097560967e+04  1.058949565387560483e+02
9.375000000000000000e+01  1.352214285714285688e+04  9.827855040337009029e+01
9.387500000000000000e+01  1.415531250000000000e+04  1.244281842946966776e+02
9.400000000000000000e+01  1.292156250000000000e+04  1.188821222235496720e+02
9.412500000000000000e+01  1.382062500000000000e+04  1.229483980934684695e+02
9.425000000000000000e+01  1.327593750000000000e+04  1.205012723610211509e+02
9.437500000000000000e+01  1.410828125000000000e+04  1.242213050051701089e+02
9.450000000000000000e+01  1.330109375000000000e+04  1.206153857891376191e+02
9.462500000000000000e+01  1.416515625000000000e+04  1.244714410956886894e+02
9.475000000000000000e+01  1.313535211267605519e+04  1.137995920614067558e+02
9.487500000000000000e+01  1.416986666666666679e+04  1.150009082089741099e+02
9.500000000000000000e+01  1.365886075949367114e+04  1.100126720643636986e+02
9.512500000000000000e+01  1.325947368421052670e+04  9.884401096756000982e+01
9.525000000000000000e+01  1.489359375000000000e+04  1.276317678482222533e+02
9.537500000000000000e+01  1.314578125000000000e+04  1.199091249329570275e+02
9.550000000000000000e+01  1.480500000000000000e+04  1.272515962571786332e+02
9.562500000000000000e+01  1.347062500000000000e+04  1.213816134912944733e+02
9.575000000000000000e+01  1.450859375000000000e+04  1.259713237767330156e+02
9.587500000000000000e+01  1.357015625000000000e+04  1.218292181639424996e+02
9.600000000000000000e+01  1.470102941176470449e+04  1.230179362115857629e+02
9.612500000000000000e+01  1.362219178082191866e+04  1.142907506329370193e+02
9.625000000000000000e+01  1.460602739726027539e+04  1.183460168151129750e+02
9.637500000000000000e+01  1.407181818181818198e+04  1.131042085135255917e+02
9.650000000000000000e+01  1.457126436781609118e+04  1.082774483130506979e+02
9.662500000000000000e+01  1.563100000000000000e+04  1.250239976964422794e+02
9.675000000000000000e+01  1.449765625000000000e+04  1.259238322297947690e+02
9.687500000000000000e+01  1.611531250000000000e+04  1.327634100453697954e+02
9.700000000000000000e+01  1.438828125000000000e+04  1.254479279110958316e+02
9.712500000000000000e+01  1.669718750000000000e+04  1.351389981764146455e+02
9.725000000000000000e+01  1.571970149253731324e+04  1.281544721168420438e+02
9.737500000000000000e+01  1.740800000000000000e+04  1.319393800197651387e+02
9.750000000000000000e+01  1.671055555555555475e+04  1.274612625733407612e+02
9.762500000000000000e+01  1.804250000000000000e+04  1.324436462969985087e+02
9.775000000000000000e+01  1.814120000000000073e+04  1.301221989772178347e+02
9.787500000000000000e+01  1.884024390243902235e+04  1.268193007340265268e+02
9.800000000000000000e+01  1.985162162162161985e+04  1.370348896939237875e+02
9.812500000000000000e+01  1.837609375000000000e+04  1.417704219471131353e+02
9.825000000000000000e+01  2.105031250000000000e+04  1.517358866480668951e+02
9.837500000000000000e+01  1.917015625000000000e+04  1.448010994379445435e+02
9.850000000000000000e+01  2.232787878787879163e+04  1.538865931876514708e+02
9.862500000000000000e+01  1.947420289855072406e+04  1.405575957505228644e+02
9.875000000000000000e+01  2.229900000000000000e+04  1.493284969454926170e+02
9.887500000000000000e+01  2.010774647887323954e+04  1.407996405605770462e+02
9.900000000000000000e+01  2.089694444444444525e+04  1.425358683469957555e+02
9.912500000000000000e+01  2.154849315068493161e+04  1.437460908603885628e+02
9.925000000000000000e+01  2.087256410256410163e+04  1.368641234844724295e+02
9.937500000000000000e+01  2.206272727272727207e+04  1.416228258205167663e+02
9.950000000000000000e+01  1.901703125000000000e+04  1.442216278152743030e+02
9.962500000000000000e+01  2.107328125000000000e+04  1.518186463092972360e+02
9.975000000000000000e+01  1.898507692307692196e+04  1.429876479127526068e+02
9.987500000000000000e+01  2.049376811594203173e+04  1.441900802692651666e+02
1.000000000000000000e+02  1.860579710144927594e+04  1.373879410094044999e+02
1.001250000000000000e+02  1.855304347826086814e+04  1.371930324992913199e+02
1.002500000000000000e+02  1.770200000000000000e+04  1.330488632044633448e+02
1.003750000000000000e+02  1.830352112676056277e+04  1.343343777837701225e+02
1.005000000000000000e+02  1.719219178082191866e+04  1.283965083305347150e+02
1.006250000000000000e+02  1.640578947368420995e+04  1.229251624683369357e+02
1.007500000000000000e+02  1.670307692307692196e+04  1.224334138558684657e+02
1.008750000000000000e+02  1.519328125000000000e+04  1.289094696567614449e+02
1.010000000000000000e+02  1.651234375000000000e+04  1.343888982638167988e+02
1.011250000000000000e+02  1.448176470588235316e+04  1.220970882615048936e+02
1.012500000000000000e+02  1.585144927536231990e+04  1.268115942028985614e+02
1.013750000000000000e+02  1.450826086956521794e+04  1.213199304312723967e+02
1.015000000000000000e+02  1.529449275362318804e+04  1.245638473590675943e+02
1.016250000000000000e+02  1.473550724637681196e+04  1.222663703657357104e+02
1.017500000000000000e+02  1.491492957746478896e+04  1.212635977810169976e+02
1.018750000000000000e+02  1.487647887323943723e+04  1.211071880681958390e+02
1.020000000000000000e+02  1.422306666666666752e+04  1.152165883118495344e+02
1.021250000000000000e+02  1.526620253164557107e+04  1.163056959114991145e+02
1.022500000000000000e+02  1.390375000000000000e+04  1.233175841577347853e+02
1.023750000000000000e+02  1.512823529411764684e+04  1.247925614409907809e+02
1.025000000000000000e+02  1.899058823529411893e+04  1.398182210875853286e+02
1.026250000000000000e+02  4.457352941176471177e+03  6.773811007913806748e+01
1.027500000000000000e+02  1.802191176470588107e+04  1.362056092570331032e+02
1.028750000000000000e+02  1.491913043478260806e+04  1.230258091476992632e+02
1.030000000000000000e+02  1.408420289855072406e+04  1.195337683716966097e+02
1.031250000000000000e+02  1.416300000000000000e+04  1.190084030646575854e+02
1.032500000000000000e+02  1.455211267605633839e+04  1.197796031993375578e+02
1.033750000000000000e+02  1.443534246575342331e+04  1.176524934446191821e+02
1.035000000000000000e+02  1.414087500000000000e+04  1.112351815973705271e+02
1.036250000000000000e+02  1.350791044776119270e+04  1.187970633427231490e+02
1.037500000000000000e+02  1.435940298507462649e+04  1.224841268397252776e+02
1.038750000000000000e+02  1.370044117647058738e+04  1.187577169228161154e+02
1.040000000000000000e+02  1.440867647058823604e+04  1.217885917180437758e+02
1.041250000000000000e+02  1.351823529411764684e+04  1.179653781828676671e+02
1.042500000000000000e+02  1.423573529411764684e+04  1.210554971531795445e+02
1.043750000000000000e+02  1.350594202898550793e+04  1.170541768552522086e+02
1.045000000000000000e+02  1.430500000000000000e+04  1.196035116541316228e+02
1.046250000000000000e+02  1.396400000000000000e+04  1.181693699737795811e+02
1.047500000000000000e+02  1.368356164383561554e+04  1.145479091650692141e+02
1.048750000000000000e+02  1.413146341463414683e+04  1.098337123944475451e+02
1.050000000000000000e+02  1.342764705882352791e+04  1.175694597022172161e+02
1.051250000000000000e+02  1.440328358208955251e+04  1.226711324132790821e+02
1.052500000000000000e+02  1.297820895522387946e+04  1.164445051904119453e+02
1.053750000000000000e+02  1.375191176470588289e+04  1.189805856338985564e+02
1.055000000000000000e+02  1.345441176470588289e+04  1.176865742461112916e+02
1.056250000000000000e+02  1.387647058823529551e+04  1.195182081363528681e+02
1.057500000000000000e+02  1.341632352941176396e+04  1.175198761073071410e+02
1.058750000000000000e+02  1.374333333333333394e+04  1.180784149508058363e+02
1.060000000000000000e+02  1.387183098591549242e+04  1.169463684117870059e+02
1.061250000000000000e+02  1.355890410958904249e+04  1.140249484639597171e+02
1.062500000000000000e+02  1.393083333333333394e+04  1.077451983977837386e+02
1.063750000000000000e+02  1.329164179104477626e+04  1.178422247369010876e+02
1.065000000000000000e+02  1.485880597014925479e+04  1.245958492103747659e+02
1.066250000000000000e+02  1.308059701492537351e+04  1.169029314804723043e+02
1.067500000000000000e+02  1.408338235294117658e+04  1.204059777626047065e+02
1.068750000000000000e+02  1.348701492537313425e+04  1.187051435956398677e+02
1.070000000000000000e+02  1.448897058823529551e+04  1.221274612116657465e+02
1.071250000000000000e+02  1.367264705882352791e+04  1.186371937337706015e+02
1.072500000000000000e+02  1.373217391304347802e+04  1.180304660936149617e+02
1.073750000000000000e+02  1.367041666666666606e+04  1.152852239897653419e+02
1.075000000000000000e+02  1.366917808219178005e+04  1.144876894592521097e+02
1.076250000000000000e+02  1.450583333333333394e+04  1.099463252884990538e+02
1.077500000000000000e+02  1.320283582089552146e+04  1.174478930167329480e+02
1.078750000000000000e+02  1.386731343283582100e+04  1.203670964794910105e+02
1.080000000000000000e+02  1.325507462686567123e+04  1.176800128783715138e+02
1.081250000000000000e+02  1.421313432835821004e+04  1.218587023077771221e+02
1.082500000000000000e+02  1.362632352941176396e+04  1.184360492032094641e+02
1.083750000000000000e+02  1.406895522388059726e+04  1.212390549404783542e+02
1.085000000000000000e+02  1.367058823529411711e+04  1.186282612190771033e+02
1.086250000000000000e+02  1.355600000000000000e+04  1.164302366226230703e+02
1.087500000000000000e+02  1.372388888888888869e+04  1.155104746466155916e+02
1.088750000000000000e+02  1.387342465753424585e+04  1.153398626589416551e+02
1.090000000000000000e+02  1.389810126582278463e+04  1.109719481378688783e+02
1.091250000000000000e+02  1.370250000000000000e+04  1.154204271348880440e+02
1.092500000000000000e+02  1.378164179104477626e+04  1.199947091727371458e+02
1.093750000000000000e+02  1.340075757575757598e+04  1.192179713867043773e+02
1.095000000000000000e+02  1.421926470588235316e+04  1.209854469500461107e+02
1.096250000000000000e+02  1.397701492537313425e+04  1.208422583973377442e+02
1.097500000000000000e+02  1.401880597014925479e+04  1.210227817402820136e+02
1.098750000000000000e+02  1.342072463768115813e+04  1.166843086850144005e+02
1.100000000000000000e+02  1.387478873239436507e+04  1.169588353771666789e+02
1.101250000000000000e+02  1.421591549295774712e+04  1.183878850688916629e+02
1.102500000000000000e+02  1.379000000000000000e+04  1.149925548513158162e+02
1.103750000000000000e+02  1.430727272727272793e+04  1.140465324779667924e+02
1.105000000000000000e+02  1.373246575342465803e+04  1.147524197816746323e+02
1.106250000000000000e+02  1.427791044776119270e+04  1.221360711288654386e+02
1.107500000000000000e+02  1.381194029850746301e+04  1.201265390598611020e+02
1.108750000000000000e+02  1.460388059701492421e+04  1.235224097011299591e+02
1.110000000000000000e+02  1.398850746268656621e+04  1.208919291892778460e+02
1.111250000000000000e+02  1.475455882352941262e+04  1.232416992579466068e+02
1.112500000000000000e+02  1.435300000000000000e+04  1.198040066107974582e+02
1.113750000000000000e+02  1.446100000000000000e+04  1.202538980657176069e+02
1.115000000000000000e+02  1.475930555555555657e+04  1.197886674342736484e+02
1.116250000000000000e+02  1.522943661971830988e+04  1.225354541036933398e+02
1.117500000000000000e+02  1.514986666666666679e+04  1.189112087044596251e+02
1.118750000000000000e+02  1.529684210526315655e+04  1.186979219527464124e+02
1.120000000000000000e+02  1.573621212121212193e+04  1.291894807898078454e+02
1.121250000000000000e+02  1.599029850746268676e+04  1.292527834235000341e+02
1.122500000000000000e+02  1.437402985074626849e+04  1.225464937386841484e+02
1.123750000000000000e+02  1.536602941176470449e+04  1.257695171863484376e+02
1.125000000000000000e+02  1.668637681159420390e+04  1.301084484558490431e+02
1.126250000000000000e+02  1.590700000000000000e+04  1.261229558803630368e+02
1.127500000000000000e+02  1.614565217391304213e+04  1.279829954836003196e+02
1.128750000000000000e+02  1.627746478873239357e+04  1.266815089951389126e+02
1.130000000000000000e+02  1.666291666666666424e+04  1.272794479496606357e+02
1.131250000000000000e+02  1.726635135135134988e+04  1.278007631514347224e+02
1.132500000000000000e+02  1.624552631578947330e+04  1.223232797326123773e+02
1.133750000000000000e+02  1.748432835820895343e+04  1.351562382298986336e+02
1.135000000000000000e+02  1.624000000000000000e+04  1.312411613185528836e+02
1.136250000000000000e+02  1.732294117647058738e+04  1.335381572673772723e+02
1.137500000000000000e+02  1.723115942028985592e+04  1.322153030795224993e+02
1.138750000000000000e+02  1.761869565217391209e+04  1.336938258388277632e+02
1.140000000000000000e+02  1.674420289855072406e+04  1.303336967394698718e+02
1.141250000000000000e+02  1.741700000000000000e+04  1.319734821848692548e+02
1.142500000000000000e+02  1.695800000000000000e+04  1.302228858534474227e+02
1.143750000000000000e+02  1.733929577464788599e+04  1.307481561675045043e+02
1.145000000000000000e+02  1.739643835616438446e+04  1.291569441878308453e+02
1.146250000000000000e+02  1.728820512820512886e+04  1.245594471900331399e+02
1.147500000000000000e+02  1.779909090909090810e+04  1.373965927214356100e+02
1.148750000000000000e+02  1.671014925373134247e+04  1.321301059257810380e+02
1.150000000000000000e+02  1.733666666666666424e+04  1.326194657858114283e+02
1.151250000000000000e+02  1.722101449275362393e+04  1.321763761529966530e+02
1.152500000000000000e+02  1.720147058823529369e+04  1.330691406516613426e+02
1.153750000000000000e+02  1.726768115942028817e+04  1.323553452192526265e+02
1.155000000000000000e+02  1.760144927536231990e+04  1.336283755162846774e+02
1.156250000000000000e+02  1.715100000000000000e+04  1.309618264991749470e+02
1.157500000000000000e+02  1.742605633802816737e+04  1.310748600030398734e+02
1.158750000000000000e+02  1.749716216216216344e+04  1.286521263440915561e+02
1.160000000000000000e+02  1.728545454545454413e+04  1.253556922791177470e+02
1.161250000000000000e+02  1.796074626865671598e+04  1.369852502576420079e+02
1.162500000000000000e+02  1.680308823529411529e+04  1.315191876221974212e+02
1.163750000000000000e+02  1.786441176470588471e+04  1.356091281593477902e+02
1.165000000000000000e+02  1.723750000000000000e+04  1.332084280145879234e+02
1.166250000000000000e+02  1.746550724637681196e+04  1.331113463976777780e+02
1.167500000000000000e+02  1.740869565217391209e+04  1.328946785584808481e+02
1.168750000000000000e+02  1.775300000000000000e+04  1.332403842684341839e+02
1.170000000000000000e+02  1.966695652173913186e+04  1.412514951323583432e+02
1.171250000000000000e+02  2.015507042253521286e+04  1.409652304337204498e+02
1.172500000000000000e+02  1.553611111111111131e+04  1.229005796126926384e+02
1.173750000000000000e+02  2.023177215189873459e+04  1.338913242778347410e+02
1.175000000000000000e+02  1.146147058823529551e+04  1.086212348685093048e+02
1.176250000000000000e+02  1.536552238805970046e+04  1.267025289929001559e+02
1.177500000000000000e+02  2.076362318840579974e+04  1.451362989179484657e+02
1.178750000000000000e+02  1.813102941176470631e+04  1.366173304624964544e+02
1.180000000000000000e+02  1.858397058823529369e+04  1.383132602409382343e+02
1.181250000000000000e+02  1.843028985507246398e+04  1.367384200038379163e+02
1.182500000000000000e+02  1.884623188405796827e+04  1.382727944299929845e+02
1.183750000000000000e+02  1.833900000000000000e+04  1.354215640140077426e+02
1.185000000000000000e+02  1.856400000000000000e+04  1.362497706420087979e+02
1.186250000000000000e+02  1.829013698630137151e+04  1.324329548152985296e+02
1.187500000000000000e+02  1.858850000000000000e+04  1.275340640770143352e+02
1.188750000000000000e+02  1.900343283582089498e+04  1.409054037769461161e+02
1.190000000000000000e+02  1.816294117647059102e+04  1.367375052014615449e+02
1.191250000000000000e+02  1.850470588235294417e+04  1.380179768643065756e+02
1.192500000000000000e+02  1.778720588235294053e+04  1.353157751207884587e+02
1.193750000000000000e+02  1.879449275362318804e+04  1.380828617409642618e+02
1.195000000000000000e+02  1.782323529411764684e+04  1.354527522676664262e+02
1.196250000000000000e+02  1.804661764705882524e+04  1.362989380700786910e+02
1.197500000000000000e+02  1.734900000000000000e+04  1.317156027204066788e+02
1.198750000000000000e+02  1.810732394366196968e+04  1.336124665293665430e+02
1.200000000000000000e+02  1.734657534246575233e+04  1.289717115618240371e+02
1.201250000000000000e+02  1.733397435897435935e+04  1.247242191195318242e+02
1.202500000000000000e+02  1.754500000000000000e+04  1.324575403667152500e+02
1.203750000000000000e+02  1.655761194029850594e+04  1.315256535796937385e+02
1.205000000000000000e+02  1.727764705882352791e+04  1.333634625704841312e+02
1.206250000000000000e+02  1.639235294117647209e+04  1.299018128005076562e+02
1.207500000000000000e+02  1.680308823529411529e+04  1.315191876221974212e+02
1.208750000000000000e+02  1.624405797101449207e+04  1.283724234445591321e+02
1.210000000000000000e+02  1.659411764705882524e+04  1.306988138079142914e+02
1.211250000000000000e+02  1.594619718309859127e+04  1.253858160103289947e+02
1.212500000000000000e+02  1.639873239436619770e+04  1.271525238934474089e+02
1.213750000000000000e+02  1.577138888888888869e+04  1.238276816914797109e+02
1.215000000000000000e+02  1.597636363636363603e+04  1.205154220095866435e+02
1.216250000000000000e+02  1.660971830985915585e+04  1.279678811864684036e+02
1.217500000000000000e+02  1.550808823529411711e+04  1.263495487823706043e+02
1.218750000000000000e+02  1.606656716417910320e+04  1.295606641458682304e+02
1.220000000000000000e+02  1.556779411764705947e+04  1.265925369649605869e+02
1.221250000000000000e+02  1.607014705882352791e+04  1.286188106106823454e+02
1.222500000000000000e+02  1.561514705882352791e+04  1.267849205937575050e+02
1.223750000000000000e+02  1.586929577464788781e+04  1.250831106367052712e+02
1.225000000000000000e+02  1.570536231884057997e+04  1.262258937995308656e+02
1.226250000000000000e+02  1.587225352112676046e+04  1.250947666956216722e+02
1.227500000000000000e+02  1.560232876712328834e+04  1.223157274186514343e+02
1.228750000000000000e+02  1.559108108108108172e+04  1.214426611268181233e+02
1.230000000000000000e+02  1.598837837837838015e+04  1.229802492649809267e+02
1.231250000000000000e+02  1.521507462686567123e+04  1.260807147230833891e+02
1.232500000000000000e+02  1.583044776119403105e+04  1.286051079092582938e+02
1.233750000000000000e+02  1.528676470588235316e+04  1.254447106598199753e+02
1.235000000000000000e+02  1.568205882352941262e+04  1.270562703991851947e+02
1.236250000000000000e+02  1.531300000000000000e+04  1.237457069962428875e+02
1.237500000000000000e+02  1.559579710144927594e+04  1.257848287608558024e+02
1.238750000000000000e+02  1.534623188405797009e+04  1.247743605144820691e+02
1.240000000000000000e+02  1.524930555555555657e+04  1.217608875401616757e+02
1.241250000000000000e+02  1.572436619718309885e+04  1.245106270594759366e+02
1.242500000000000000e+02  1.536739726027397410e+04  1.213913521901955050e+02
1.243750000000000000e+02  1.537479999999999927e+04  1.197907063729625747e+02
1.245000000000000000e+02  1.433223880597014795e+04  1.223682182678916206e+02
1.246250000000000000e+02  1.572838235294117658e+04  1.272437889796984649e+02
1.247500000000000000e+02  1.483897058823529551e+04  1.235937332539719762e+02
1.248750000000000000e+02  1.522800000000000000e+04  1.234017828072187939e+02
1.250000000000000000e+02  1.496147058823529551e+04  1.241028357485454308e+02
1.251250000000000000e+02  1.500070422535211219e+04  1.216117868508286506e+02
1.252500000000000000e+02  1.490695652173913004e+04  1.229756047754199102e+02
1.253750000000000000e+02  1.507100000000000000e+04  1.227640012381479835e+02
1.255000000000000000e+02  1.489028169014084597e+04  1.211633583754383920e+02
1.256250000000000000e+02  1.493972602739725880e+04  1.196902865056542140e+02
1.257500000000000000e+02  1.532533333333333394e+04  1.195978446479887367e+02
1.258750000000000000e+02  1.464776119402985205e+04  1.237078457424594546e+02
1.260000000000000000e+02  1.502057971014492796e+04  1.234433848821455513e+02
1.261250000000000000e+02  1.444264705882352791e+04  1.219320745162967796e+02
1.262500000000000000e+02  1.478800000000000000e+04  1.216059209084820907e+02
1.263750000000000000e+02  1.433970588235294053e+04  1.214967569020517573e+02
1.265000000000000000e+02  1.464400000000000000e+04  1.210123960592467540e+02
1.266250000000000000e+02  1.464927536231884187e+04  1.219080953050418685e+02
1.267500000000000000e+02  1.450700000000000000e+04  1.204450081987626362e+02
1.268750000000000000e+02  1.439338028169014251e+04  1.191245424576767959e+02
1.270000000000000000e+02  1.460083333333333394e+04  1.191438400826061610e+02
1.271250000000000000e+02  1.460789473684210498e+04  1.159941373052822655e+02
1.272500000000000000e+02  1.458100000000000000e+04  1.207518115806135626e+02
1.273750000000000000e+02  1.484626865671641826e+04  1.245432734224468163e+02
1.275000000000000000e+02  1.426558823529411711e+04  1.211823599368389637e+02
1.276250000000000000e+02  1.474100000000000000e+04  1.214125199474914041e+02
1.277500000000000000e+02  1.417602941176470449e+04  1.208013719015110894e+02
1.278750000000000000e+02  1.449811594202898414e+04  1.212775064238098253e+02
1.280000000000000000e+02  1.393608695652173810e+04  1.189035711459245306e+02
1.281250000000000000e+02  1.435394366197183081e+04  1.189612350363793070e+02
1.282500000000000000e+02  1.437900000000000000e+04  1.199124680756759318e+02
1.283750000000000000e+02  1.411123287671232902e+04  1.163241986727071264e+02
1.285000000000000000e+02  1.459960526315789502e+04  1.159612213097353930e+02
1.286250000000000000e+02  1.381840579710144993e+04  1.184004752852963662e+02
1.287500000000000000e+02  1.466191176470588289e+04  1.228541593258763953e+02
1.288750000000000000e+02  1.407000000000000000e+04  1.203487579055628061e+02
1.290000000000000000e+02  1.452550724637681196e+04  1.213920172175682666e+02
1.291250000000000000e+02  1.417705882352941262e+04  1.208057579003108373e+02
1.292500000000000000e+02  1.447300000000000000e+04  1.203037821516846577e+02
1.293750000000000000e+02  1.411057971014492796e+04  1.196456470807209058e+02
1.295000000000000000e+02  1.428608695652173810e+04  1.203874233257862159e+02
1.296250000000000000e+02  1.446180555555555657e+04  1.185752450327128855e+02
1.297500000000000000e+02  1.408652777777777737e+04  1.170266437163186026e+02
1.298750000000000000e+02  1.448282051282051179e+04  1.140061534493910642e+02
1.300000000000000000e+02  1.388676470588235316e+04  1.195625315972262115e+02
1.301250000000000000e+02  1.471132352941176396e+04  1.230609991653364261e+02
1.302500000000000000e+02  1.387955882352941262e+04  1.195315069003503936e+02
1.303750000000000000e+02  1.417956521739130403e+04  1.199377595362314963e+02
1.305000000000000000e+02  1.379202898550724603e+04  1.182874188726682547e+02
1.306250000000000000e+02  1.433970588235294053e+04  1.214967569020517573e+02
1.307500000000000000e+02  1.407600000000000000e+04  1.186423195997111435e+02
1.308750000000000000e+02  1.421400000000000000e+04  1.192224811015103825e+02
1.310000000000000000e+02  1.414875000000000000e+04  1.172848207001514140e+02
1.311250000000000000e+02  1.384816901408450758e+04  1.168465848028230454e+02
1.312500000000000000e+02  1.384316455696202684e+04  1.107524048364411868e+02
1.313750000000000000e+02  1.304925373134328402e+04  1.167627880556890432e+02
1.315000000000000000e+02  1.390323529411764684e+04  1.196334149777509026e+02
1.316250000000000000e+02  1.310441176470588289e+04  1.161457517093862890e+02
1.317500000000000000e+02  1.370600000000000000e+04  1.264528897784994683e+02
1.318750000000000000e+02  1.365311111111111131e+04  1.457332248991497750e+02
1.320000000000000000e+02  3.673599999999999909e+03  1.014203135471390738e+02
