# DMC at SINQ, PSI: Sample name = Unknown, wavelength = 2.450 AA, T = 0.0 K
# Filelist='dmc:2022:580'
#   0.000   0.125 132.000     140., sample="Unknown"
0.000000000000000000e+00  9.240000000000000000e+03  8.042387705153239494e+02
1.250000000000000000e-01  1.018500000000000000e+04  5.970552738231192507e+02
2.500000000000000000e-01  9.758000000000000000e+03  3.696106059084343656e+02
3.750000000000000000e-01  9.044000000000000000e+03  3.558314207598873509e+02
5.000000000000000000e-01  9.520000000000000000e+03  2.721110884261140086e+02
6.250000000000000000e-01  1.007222222222222263e+04  2.798919544625023832e+02
7.500000000000000000e-01  9.412307692307691468e+03  2.251258688039509366e+02
8.750000000000000000e-01  9.825000000000000000e+03  2.216416025930149942e+02
1.000000000000000000e+00  9.520000000000000000e+03  2.181742422927142684e+02
1.125000000000000000e+00  9.345000000000000000e+03  1.808521495586933554e+02
1.250000000000000000e+00  9.465555555555556566e+03  1.918606104106845862e+02
1.375000000000000000e+00  9.324583333333333940e+03  1.649142243376504098e+02
1.500000000000000000e+00  9.726666666666667879e+03  1.800617178142600494e+02
1.625000000000000000e+00  9.473333333333333940e+03  1.567178797302991029e+02
1.750000000000000000e+00  9.578333333333333940e+03  1.671430691221013376e+02
1.875000000000000000e+00  8.923870967741935601e+03  1.419530780884025489e+02
2.000000000000000000e+00  9.642500000000000000e+03  1.552618755522423726e+02
2.125000000000000000e+00  9.294000000000000000e+03  1.363378157372341093e+02
2.250000000000000000e+00  9.242000000000000000e+03  1.359558751948587201e+02
2.375000000000000000e+00  9.330810810810809926e+03  1.328641611487092575e+02
2.500000000000000000e+00  9.359000000000000000e+03  1.279775370914755683e+02
2.625000000000000000e+00  9.380000000000000000e+03  1.314494099203988355e+02
2.750000000000000000e+00  9.228863636363636033e+03  1.211704710639157270e+02
2.875000000000000000e+00  9.245000000000000000e+03  1.241303078757695602e+02
3.000000000000000000e+00  9.177446808510640039e+03  1.169125219979000434e+02
3.125000000000000000e+00  9.184583333333333940e+03  1.157332451276545555e+02
3.250000000000000000e+00  9.011041666666666060e+03  1.146346476007823441e+02
3.375000000000000000e+00  9.160576923076923777e+03  1.110474937042172314e+02
3.500000000000000000e+00  9.152500000000000000e+03  1.069608573264070230e+02
3.625000000000000000e+00  9.458596491228070590e+03  1.077767147967748542e+02
3.750000000000000000e+00  9.249824561403509506e+03  1.065806439833192627e+02
3.875000000000000000e+00  9.160819672131146945e+03  1.025300737208341104e+02
4.000000000000000000e+00  9.318166666666667879e+03  1.042650202342302634e+02
4.125000000000000000e+00  9.345000000000000000e+03  1.010994250725492520e+02
4.250000000000000000e+00  9.265156250000000000e+03  1.006666014546905217e+02
4.375000000000000000e+00  9.112923076923078042e+03  9.906521669972420341e+01
4.500000000000000000e+00  9.115555555555556566e+03  9.414003228707936444e+01
4.625000000000000000e+00  9.268823529411763957e+03  9.768027429404141060e+01
4.750000000000000000e+00  9.200909090909090082e+03  9.145743714929560042e+01
4.875000000000000000e+00  9.361267605633802305e+03  9.606986398511155301e+01
5.000000000000000000e+00  9.263614457831326945e+03  8.838940486363114246e+01
5.125000000000000000e+00  9.346842105263156554e+03  9.278433875393811547e+01
5.250000000000000000e+00  9.271585365853658004e+03  8.896498184814589649e+01
5.375000000000000000e+00  9.312692307692308532e+03  9.141960609572885232e+01
5.500000000000000000e+00  9.259764705882353155e+03  8.732518869899382707e+01
5.625000000000000000e+00  9.254000000000000000e+03  8.483840849258993444e+01
5.750000000000000000e+00  9.248139534883721353e+03  8.676148589881614726e+01
5.875000000000000000e+00  9.401827956989247468e+03  8.412279535779293838e+01
6.000000000000000000e+00  9.241609195402297701e+03  8.623095449745457586e+01
6.125000000000000000e+00  9.245051546391752709e+03  8.168039350396837506e+01
6.250000000000000000e+00  9.227340425531914661e+03  8.289405118065340616e+01
6.375000000000000000e+00  9.438217821782178362e+03  8.087854526636522223e+01
6.500000000000000000e+00  9.347142857142856883e+03  8.171003984973265233e+01
6.625000000000000000e+00  9.270000000000000000e+03  7.861297602813418450e+01
6.750000000000000000e+00  9.041666666666666060e+03  7.877223723798330468e+01
6.875000000000000000e+00  9.366513761467889708e+03  7.755767095444821280e+01
7.000000000000000000e+00  8.932924528301886312e+03  7.680560593860050744e+01
7.125000000000000000e+00  9.254770642201834562e+03  7.709364881527243085e+01
7.250000000000000000e+00  9.226831683168316886e+03  7.996770498032080354e+01
7.375000000000000000e+00  9.123333333333333940e+03  8.156243348230577794e+01
7.500000000000000000e+00  9.516195652173912094e+03  8.509161914309302688e+01
7.625000000000000000e+00  9.462043010752689952e+03  8.439175230765023628e+01
7.750000000000000000e+00  9.507272727272726115e+03  8.696322961910468052e+01
7.875000000000000000e+00  9.447666666666666060e+03  8.572155612904600730e+01
8.000000000000000000e+00  9.513488372093022917e+03  8.799736954621120333e+01
8.125000000000000000e+00  9.812873563218390700e+03  8.885615066294221265e+01
8.250000000000000000e+00  9.865977011494253020e+03  8.909625369812891904e+01
8.375000000000000000e+00  9.919875000000000000e+03  9.316593060233981305e+01
8.500000000000000000e+00  9.815647058823529733e+03  8.990814228112438400e+01
8.625000000000000000e+00  1.010100000000000000e+04  9.401263212994304297e+01
8.750000000000000000e+00  1.005891566265060283e+04  9.210549846789051287e+01
8.875000000000000000e+00  1.052818181818181802e+04  9.783186791718375730e+01
9.000000000000000000e+00  1.062292682926829184e+04  9.522789597238086401e+01
9.125000000000000000e+00  1.106000000000000000e+04  9.488058590352058275e+01
9.250000000000000000e+00  1.145236842105263167e+04  1.027045961582156224e+02
9.375000000000000000e+00  1.127482758620689492e+04  9.524547420596000791e+01
9.500000000000000000e+00  1.139718309859154942e+04  1.060031102986020102e+02
9.625000000000000000e+00  1.094250000000000000e+04  9.549214627392139221e+01
9.750000000000000000e+00  1.120000000000000000e+04  1.029300470931330977e+02
9.875000000000000000e+00  1.098827160493827250e+04  9.744761253849593174e+01
1.000000000000000000e+01  1.101153846153846280e+04  9.940900312034453634e+01
1.012500000000000000e+01  1.085000000000000000e+04  9.996709985105889018e+01
1.025000000000000000e+01  1.082727272727272793e+04  9.921176949642401155e+01
1.037500000000000000e+01  1.077346666666666715e+04  1.002757974565924712e+02
1.050000000000000000e+01  1.083463414634146284e+04  9.617212657419865707e+01
1.062500000000000000e+01  1.074266666666666606e+04  1.001323568527620864e+02
1.075000000000000000e+01  1.070113924050632886e+04  9.737567515473796220e+01
1.087500000000000000e+01  1.062413333333333321e+04  9.957840015674975120e+01
1.100000000000000000e+01  1.053818181818181802e+04  9.787831879050742145e+01
1.112500000000000000e+01  1.069434210526315655e+04  9.924742787124597498e+01
1.125000000000000000e+01  1.043189189189189165e+04  9.933783691867625976e+01
1.137500000000000000e+01  1.052743243243243342e+04  9.979169319477111344e+01
1.150000000000000000e+01  1.046131578947368325e+04  9.816018764077996650e+01
1.162500000000000000e+01  1.057000000000000000e+04  9.999324301495900613e+01
1.175000000000000000e+01  1.054200000000000000e+04  9.919274166994276243e+01
1.187500000000000000e+01  1.032320512820512886e+04  9.625183041711791532e+01
1.200000000000000000e+01  1.053835616438356192e+04  1.005249871143508358e+02
1.212500000000000000e+01  1.038275000000000000e+04  9.531477456302354767e+01
1.225000000000000000e+01  1.049600000000000000e+04  1.024499877989255765e+02
1.237500000000000000e+01  1.053632911392405003e+04  9.662291561769571047e+01
1.250000000000000000e+01  1.033000000000000000e+04  1.016366075781753011e+02
1.262500000000000000e+01  1.040013333333333321e+04  9.852304862879097413e+01
1.275000000000000000e+01  1.070611111111111131e+04  1.020231303960159295e+02
1.287500000000000000e+01  1.053090909090909008e+04  9.784453852417243525e+01
1.300000000000000000e+01  1.075200000000000000e+04  1.036918511745257661e+02
1.312500000000000000e+01  1.052893333333333248e+04  9.913124857704781334e+01
1.325000000000000000e+01  1.074453333333333285e+04  1.001410560714790421e+02
1.337500000000000000e+01  1.039689189189189165e+04  9.917105291148931201e+01
1.350000000000000000e+01  1.077363636363636397e+04  9.896572576419100642e+01
1.362500000000000000e+01  1.058623188405797009e+04  1.036323093178549470e+02
1.375000000000000000e+01  1.063730769230769147e+04  9.770517783182182825e+01
1.387500000000000000e+01  1.083200000000000000e+04  1.040768946500615044e+02
1.400000000000000000e+01  1.032689189189189165e+04  9.883664057098052069e+01
1.412500000000000000e+01  1.063211267605633839e+04  1.023834196058931667e+02
1.425000000000000000e+01  1.017671052631578823e+04  9.681573224987937465e+01
1.437500000000000000e+01  1.057000000000000000e+04  1.035528290574289372e+02
1.450000000000000000e+01  1.239189189189189165e+04  1.082684621565096990e+02
1.462500000000000000e+01  9.282368421052631675e+03  9.246377594223504559e+01
1.475000000000000000e+01  1.020319999999999891e+04  9.758579131547105590e+01
1.487500000000000000e+01  1.050863013698630130e+04  1.003831092590153418e+02
1.500000000000000000e+01  1.057788732394366161e+04  1.021220005456092395e+02
1.512500000000000000e+01  1.044135135135135170e+04  9.938286563089249626e+01
1.525000000000000000e+01  1.082900000000000000e+04  1.040624812312295404e+02
1.537500000000000000e+01  1.092378378378378511e+04  1.016528847827760274e+02
1.550000000000000000e+01  1.223147058823529551e+04  1.122106043258986858e+02
1.562500000000000000e+01  1.240657894736841990e+04  1.068976715759779808e+02
1.575000000000000000e+01  1.275852941176470449e+04  1.146027062368799818e+02
1.587500000000000000e+01  1.231160000000000036e+04  1.071952735276451705e+02
1.600000000000000000e+01  1.203054054054054177e+04  1.066782126390514236e+02
1.612500000000000000e+01  1.186868421052631675e+04  1.045546882042348358e+02
1.625000000000000000e+01  1.171267605633802850e+04  1.074602660890940768e+02
1.637500000000000000e+01  1.139178082191780959e+04  1.045161492099408065e+02
1.650000000000000000e+01  1.091802816901408369e+04  1.037509186676440009e+02
1.662500000000000000e+01  1.087397260273972461e+04  1.021131579000755778e+02
1.675000000000000000e+01  1.064295774647887265e+04  1.024356233599824577e+02
1.687500000000000000e+01  1.079944444444444343e+04  1.024668720930975496e+02
1.700000000000000000e+01  1.043492957746478896e+04  1.014295752645428763e+02
1.712500000000000000e+01  1.063700000000000000e+04  1.031358327643695532e+02
1.725000000000000000e+01  1.038722222222222263e+04  1.004922299066198264e+02
1.737500000000000000e+01  1.061123287671232902e+04  1.008719723872087002e+02
1.750000000000000000e+01  1.063813333333333321e+04  9.964398850128614527e+01
1.762500000000000000e+01  1.036200000000000000e+04  1.017939094445242318e+02
1.775000000000000000e+01  1.039453333333333285e+04  9.849651996108515561e+01
1.787500000000000000e+01  1.046400000000000000e+04  1.022936948203553698e+02
1.800000000000000000e+01  1.061410958904109611e+04  1.008856446902132546e+02
1.812500000000000000e+01  1.059800000000000000e+04  1.029465880930494990e+02
1.825000000000000000e+01  1.071875000000000000e+04  1.020833333333333286e+02
1.837500000000000000e+01  1.037600000000000000e+04  1.018626526259747322e+02
1.850000000000000000e+01  1.084199999999999818e+04  1.041249249699609578e+02
1.862500000000000000e+01  1.039746478873239357e+04  1.012473289657258562e+02
1.875000000000000000e+01  1.076909090909090810e+04  9.894484647836945612e+01
1.887500000000000000e+01  1.045800000000000000e+04  1.022643632943558742e+02
1.900000000000000000e+01  1.044680000000000109e+04  9.874384368995703198e+01
1.912500000000000000e+01  1.043100000000000000e+04  1.021322671832952125e+02
1.925000000000000000e+01  1.048930555555555657e+04  1.009848303300556154e+02
1.937500000000000000e+01  1.051900000000000000e+04  1.025621762639619448e+02
1.950000000000000000e+01  1.030534246575342331e+04  9.940742045306990349e+01
1.962500000000000000e+01  1.065826086956521794e+04  1.039842700527320005e+02
1.975000000000000000e+01  1.005830985915492965e+04  9.958234543889039969e+01
1.987500000000000000e+01  1.033800000000000000e+04  1.016759558597803448e+02
2.000000000000000000e+01  1.027000000000000000e+04  1.013410084812658596e+02
2.012500000000000000e+01  1.062786666666666497e+04  9.959589460526082405e+01
2.025000000000000000e+01  1.022295774647887265e+04  1.003940856131770829e+02
2.037500000000000000e+01  1.024426666666666642e+04  9.778197970769234360e+01
2.050000000000000000e+01  1.048600000000000000e+04  1.024011718682945542e+02
2.062500000000000000e+01  1.048225352112676046e+04  1.016593141211850053e+02
2.075000000000000000e+01  1.133211267605633839e+04  1.057000731090892458e+02
2.087500000000000000e+01  1.188444444444444343e+04  1.074910274751075292e+02
2.100000000000000000e+01  1.345115942028985410e+04  1.168165388963153077e+02
2.112500000000000000e+01  1.426718309859154942e+04  1.186011671855143135e+02
2.125000000000000000e+01  1.454985507246376801e+04  1.214937139825846373e+02
2.137500000000000000e+01  1.429676056338028138e+04  1.187240402721535588e+02
2.150000000000000000e+01  1.362375000000000000e+04  1.150882813322016744e+02
2.162500000000000000e+01  1.243973684210526335e+04  1.070404239274613332e+02
2.175000000000000000e+01  1.156724637681159402e+04  1.083276863440249400e+02
2.187500000000000000e+01  1.131067567567567676e+04  1.034373617283176259e+02
2.200000000000000000e+01  1.061971014492753602e+04  1.037960451443485681e+02
2.212500000000000000e+01  1.048055555555555657e+04  1.009427016299131878e+02
2.225000000000000000e+01  1.024400000000000000e+04  1.012126474310399544e+02
2.237500000000000000e+01  1.029394366197183081e+04  1.007420395861242639e+02
2.250000000000000000e+01  1.007289855072463797e+04  1.010884888980523897e+02
2.262500000000000000e+01  1.028014084507042207e+04  1.006744760549697162e+02
2.275000000000000000e+01  1.012666666666666606e+04  1.013579298905163171e+02
2.287500000000000000e+01  1.028904109589041036e+04  9.932876617868485880e+01
2.300000000000000000e+01  1.006541666666666606e+04  9.892331251661187252e+01
2.312500000000000000e+01  1.006178082191780959e+04  9.822567373106272726e+01
2.325000000000000000e+01  1.013736111111111131e+04  9.927621944309514390e+01
2.337500000000000000e+01  1.026338028169014251e+04  1.005923736166681266e+02
2.350000000000000000e+01  1.015900000000000000e+04  1.007918647510799843e+02
2.362500000000000000e+01  9.882000000000000000e+03  9.940824915468535039e+01
2.375000000000000000e+01  9.960704225352112189e+03  9.909799501778194042e+01
2.387500000000000000e+01  9.658970588235295509e+03  9.971488333482373889e+01
2.400000000000000000e+01  1.005277777777777737e+04  9.886118525800347356e+01
2.412500000000000000e+01  9.750000000000000000e+03  9.874208829065749171e+01
2.425000000000000000e+01  1.017130434782608791e+04  1.015810738069134374e+02
2.437500000000000000e+01  9.968000000000000000e+03  9.645447976463646000e+01
2.450000000000000000e+01  9.939041095890410361e+03  9.762472715569391823e+01
2.462500000000000000e+01  1.005800000000000000e+04  1.002895807150473644e+02
2.475000000000000000e+01  9.845000000000000000e+03  9.922197337283712670e+01
2.487500000000000000e+01  9.984366197183098848e+03  9.921563042770245033e+01
2.500000000000000000e+01  9.851267605633802305e+03  9.855210478557587805e+01
2.512500000000000000e+01  1.008304347826086996e+04  1.011393817618201609e+02
2.525000000000000000e+01  9.750704225352112189e+03  9.804779631905661574e+01
2.537500000000000000e+01  1.016400000000000000e+04  1.008166652890284780e+02
2.550000000000000000e+01  9.790000000000000000e+03  9.894442884771228819e+01
2.562500000000000000e+01  9.936911764705882888e+03  1.011393784607781896e+02
2.575000000000000000e+01  9.884933333333334303e+03  9.605174531354325040e+01
2.587500000000000000e+01  1.030986486486486501e+04  9.875512580200313550e+01
2.600000000000000000e+01  1.049898550724637607e+04  1.032043832281184024e+02
2.612500000000000000e+01  1.047763888888888869e+04  1.009286548220946571e+02
2.625000000000000000e+01  1.055681159420289987e+04  1.034882063990100249e+02
2.637500000000000000e+01  1.046253521126760643e+04  1.015636527523733861e+02
2.650000000000000000e+01  1.048225352112676046e+04  1.016593141211850053e+02
2.662500000000000000e+01  1.010028985507246398e+04  1.012258409076695074e+02
2.675000000000000000e+01  1.019057971014492796e+04  1.016772800145711955e+02
2.687500000000000000e+01  1.004200000000000000e+04  1.002097799618380520e+02
2.700000000000000000e+01  1.022800000000000182e+04  1.011335750381642526e+02
2.712500000000000000e+01  1.038743243243243342e+04  9.912592798176920894e+01
2.725000000000000000e+01  1.079458333333333394e+04  1.024438079939256170e+02
2.737500000000000000e+01  1.100891891891891828e+04  1.020482347745367804e+02
2.750000000000000000e+01  1.085522388059701370e+04  1.064954397203033380e+02
2.762500000000000000e+01  1.074986111111111131e+04  1.022313741374177738e+02
2.775000000000000000e+01  1.061338028169014251e+04  1.022931867348483763e+02
2.787500000000000000e+01  1.032753623188405800e+04  1.023582467123548696e+02
2.800000000000000000e+01  1.002100000000000000e+04  1.001049449328053953e+02
2.812500000000000000e+01  9.951323529411763957e+03  1.012126944388446503e+02
2.825000000000000000e+01  9.471000000000000000e+03  9.731906288081488299e+01
2.837500000000000000e+01  9.822000000000000000e+03  9.910600385445879112e+01
2.850000000000000000e+01  9.733783783783785111e+03  9.595641358963277412e+01
2.862500000000000000e+01  9.625000000000000000e+03  9.673488971869916497e+01
2.875000000000000000e+01  9.613333333333333940e+03  9.667624473621373227e+01
2.887500000000000000e+01  9.564000000000000000e+03  9.779570542718118986e+01
2.900000000000000000e+01  9.784782608695653835e+03  9.963227916844989807e+01
2.912500000000000000e+01  1.160915492957746392e+04  1.069843245770950375e+02
2.925000000000000000e+01  8.780563380281690115e+03  9.304242835135569578e+01
2.937500000000000000e+01  9.202941176470587379e+03  9.733250185295257495e+01
2.950000000000000000e+01  9.371000000000000000e+03  9.680392554023829632e+01
2.962500000000000000e+01  9.272000000000000000e+03  9.629122493768578295e+01
2.975000000000000000e+01  9.503768115942029908e+03  9.819115991645220731e+01
2.987500000000000000e+01  9.288243243243243342e+03  9.373460428734827588e+01
3.000000000000000000e+01  9.456805555555556566e+03  9.588595576175730173e+01
3.012500000000000000e+01  9.764027777777777374e+03  9.743102577695987065e+01
3.025000000000000000e+01  9.921000000000000000e+03  9.960421677820673381e+01
3.037500000000000000e+01  1.043900000000000000e+04  1.021714245765419520e+02
3.050000000000000000e+01  1.047800000000000000e+04  1.023621023621535500e+02
3.062500000000000000e+01  1.075400000000000000e+04  1.037014946854672814e+02
3.075000000000000000e+01  1.069300000000000000e+04  1.034069630150697350e+02
3.087500000000000000e+01  1.086521739130434617e+04  1.049889723257585814e+02
3.100000000000000000e+01  1.023521739130434617e+04  1.018997246082455916e+02
3.112500000000000000e+01  1.026057971014492796e+04  1.020258975158520371e+02
3.125000000000000000e+01  9.715616438356164508e+03  9.652121284945900470e+01
3.137500000000000000e+01  9.757432432432433416e+03  9.607290800377049322e+01
3.150000000000000000e+01  9.599859154929577926e+03  9.728643210159025045e+01
3.162500000000000000e+01  9.431000000000000000e+03  9.711333585043817607e+01
3.175000000000000000e+01  9.558888888888888687e+03  9.640209643742643664e+01
3.187500000000000000e+01  9.464202898550724058e+03  9.798655652383793324e+01
3.200000000000000000e+01  9.293768115942029908e+03  9.710025956441836570e+01
3.212500000000000000e+01  9.473661971830984839e+03  9.664486594265007113e+01
3.225000000000000000e+01  9.510597014925373514e+03  9.968171669097270637e+01
3.237500000000000000e+01  9.255000000000000000e+03  9.620291055888070275e+01
3.250000000000000000e+01  9.656956521739130039e+03  9.897935347009767781e+01
3.262500000000000000e+01  9.150135135135134988e+03  9.303511829378540199e+01
3.275000000000000000e+01  9.499295774647887811e+03  9.677552829312486438e+01
3.287500000000000000e+01  9.362500000000000000e+03  9.540665886381073335e+01
3.300000000000000000e+01  9.196619718309857490e+03  9.522126791385629474e+01
3.312500000000000000e+01  9.311000000000000000e+03  9.649352309870336342e+01
3.325000000000000000e+01  9.425000000000000000e+03  9.708243919473800077e+01
3.337500000000000000e+01  9.327000000000000000e+03  9.657639463140048974e+01
3.350000000000000000e+01  9.271449275362319895e+03  9.698359709476667945e+01
3.362500000000000000e+01  9.409000000000000000e+03  9.700000000000000000e+01
3.375000000000000000e+01  9.375882352941176578e+03  9.824277886244829006e+01
3.387500000000000000e+01  9.468260869565217945e+03  9.800756114498463489e+01
3.400000000000000000e+01  9.242916666666666060e+03  9.479540590915512155e+01
3.412500000000000000e+01  9.436933333333332484e+03  9.384990380626101114e+01
3.425000000000000000e+01  9.538260869565217945e+03  9.836918488196150179e+01
3.437500000000000000e+01  9.751690140845070346e+03  9.805275310965248536e+01
3.450000000000000000e+01  1.045464788732394481e+04  1.015253629667515582e+02
3.462500000000000000e+01  1.083173913043478206e+04  1.048270998213859997e+02
3.475000000000000000e+01  1.148400000000000000e+04  1.071634265969505151e+02
3.487500000000000000e+01  1.183295774647887265e+04  1.080106308183037243e+02
3.500000000000000000e+01  1.244119402985074521e+04  1.140099224596133638e+02
3.512500000000000000e+01  1.206231884057971001e+04  1.106215849446236206e+02
3.525000000000000000e+01  1.173057971014492796e+04  1.090898167187993266e+02
3.537500000000000000e+01  1.088943661971830988e+04  1.036149809292155908e+02
3.550000000000000000e+01  1.034202702702702845e+04  9.890904174583646125e+01
3.562500000000000000e+01  9.875675675675676757e+03  9.665327396877145816e+01
3.575000000000000000e+01  9.378985507246376073e+03  9.754441467064299331e+01
3.587500000000000000e+01  9.289295774647887811e+03  9.569984651446564783e+01
3.600000000000000000e+01  9.227000000000000000e+03  9.605727458136630048e+01
3.612500000000000000e+01  9.340000000000000000e+03  9.664367542679654832e+01
3.625000000000000000e+01  9.230735294117646845e+03  9.747936965661256181e+01
3.637500000000000000e+01  9.171014492753623927e+03  9.645686987598028850e+01
3.650000000000000000e+01  8.989420289855072042e+03  9.549712950309675819e+01
3.662500000000000000e+01  9.138088235294117112e+03  9.698894543365331344e+01
3.675000000000000000e+01  8.843000000000000000e+03  9.403722667114337241e+01
3.687500000000000000e+01  9.115657894736843446e+03  9.162969329055280809e+01
3.700000000000000000e+01  8.958055555555556566e+03  9.332320546901691216e+01
3.712500000000000000e+01  9.037887323943661613e+03  9.439593813444773218e+01
3.725000000000000000e+01  9.058000000000000000e+03  9.517352573063583066e+01
3.737500000000000000e+01  8.981000000000000000e+03  9.476813810558905971e+01
3.750000000000000000e+01  9.238000000000000000e+03  9.611451503285026376e+01
3.762500000000000000e+01  8.907246376811594018e+03  9.505964918939983477e+01
3.775000000000000000e+01  9.010724637681158129e+03  9.561022356328567184e+01
3.787500000000000000e+01  9.060298507462686757e+03  9.729328607493697234e+01
3.800000000000000000e+01  8.976000000000000000e+03  9.474175425861608346e+01
3.812500000000000000e+01  9.139565217391304031e+03  9.629134272773444536e+01
3.825000000000000000e+01  9.218181818181819835e+03  9.154324272853895650e+01
3.837500000000000000e+01  9.331690140845070346e+03  9.591797477709906161e+01
3.850000000000000000e+01  9.519000000000000000e+03  9.756536270623914220e+01
3.862500000000000000e+01  9.999154929577463918e+03  9.928908178422865660e+01
3.875000000000000000e+01  1.004347826086956593e+04  1.009407544890773920e+02
3.887500000000000000e+01  1.042400000000000000e+04  1.020979921448017507e+02
3.900000000000000000e+01  1.031000000000000000e+04  1.015381701627520954e+02
3.912500000000000000e+01  1.033159420289855007e+04  1.023783544125217873e+02
3.925000000000000000e+01  1.013000000000000000e+04  1.006479011206890561e+02
3.937500000000000000e+01  9.830757575757575978e+03  1.021105335663144444e+02
3.950000000000000000e+01  9.269420289855072042e+03  9.697298445621711949e+01
3.962500000000000000e+01  9.237200000000000728e+03  9.285142253442684535e+01
3.975000000000000000e+01  8.952328767123288344e+03  9.265217129234865467e+01
3.987500000000000000e+01  8.903802816901408733e+03  9.369310083151226820e+01
4.000000000000000000e+01  8.885000000000000000e+03  9.426027795418384869e+01
4.012500000000000000e+01  8.894000000000000000e+03  9.430800602281865963e+01
4.025000000000000000e+01  8.960000000000000000e+03  9.534073144497983776e+01
4.037500000000000000e+01  8.810140845070422074e+03  9.319900404132430083e+01
4.050000000000000000e+01  9.218695652173912094e+03  9.670728998885257965e+01
4.062500000000000000e+01  8.744852941176470267e+03  9.487915734380179344e+01
4.075000000000000000e+01  8.966086956521738102e+03  9.537311070604067709e+01
4.087500000000000000e+01  8.851911764705882888e+03  9.545816942895271495e+01
4.100000000000000000e+01  8.765135135135134988e+03  9.105681768406718390e+01
4.112500000000000000e+01  8.917222222222222626e+03  9.311026584076682866e+01
4.125000000000000000e+01  8.913333333333332121e+03  9.308996047233418381e+01
4.137500000000000000e+01  9.018169014084507580e+03  9.429290826513626200e+01
4.150000000000000000e+01  8.759000000000000000e+03  9.358952932887311249e+01
4.162500000000000000e+01  9.071594202898550066e+03  9.593261480148815679e+01
4.175000000000000000e+01  9.022898550724637971e+03  9.567478871880153690e+01
4.187500000000000000e+01  9.196376811594203900e+03  9.659015288812126698e+01
4.200000000000000000e+01  9.334347826086957866e+03  9.731201482532144098e+01
4.212500000000000000e+01  9.849411764705882888e+03  1.006930997934851462e+02
4.225000000000000000e+01  1.015405797101449207e+04  1.014949172691124346e+02
4.237500000000000000e+01  1.108837837837838015e+04  1.024158511859453853e+02
4.250000000000000000e+01  1.140328767123287616e+04  1.045689218208318749e+02
4.262500000000000000e+01  1.230521126760563493e+04  1.101448974435521677e+02
4.275000000000000000e+01  1.260700000000000000e+04  1.122808977520219145e+02
4.287500000000000000e+01  1.240281690140845058e+04  1.105808723939939995e+02
4.300000000000000000e+01  1.215768115942028999e+04  1.110580003290760089e+02
4.312500000000000000e+01  1.185637681159420390e+04  1.096731888821890806e+02
4.325000000000000000e+01  1.119594202898550793e+04  1.065748659787620483e+02
4.337500000000000000e+01  1.027275362318840598e+04  1.020864051207651784e+02
4.350000000000000000e+01  1.026057971014492796e+04  1.020258975158520371e+02
4.362500000000000000e+01  9.767611940298507761e+03  1.010196401637787318e+02
4.375000000000000000e+01  1.005479999999999927e+04  9.687352579523468421e+01
4.387500000000000000e+01  1.073493150684931425e+04  1.014582176961269511e+02
4.400000000000000000e+01  8.450555555555556566e+03  9.064114905071851069e+01
4.412500000000000000e+01  1.011652173913043407e+04  1.013071468170892615e+02
4.425000000000000000e+01  9.364782608695653835e+03  9.747052937056511723e+01
4.437500000000000000e+01  9.830000000000000000e+03  9.914635646356350662e+01
4.450000000000000000e+01  1.013376811594202991e+04  1.013934629082215508e+02
4.462500000000000000e+01  1.004347826086956593e+04  1.009407544890773920e+02
4.475000000000000000e+01  1.015710144927536203e+04  1.015101266776149913e+02
4.487500000000000000e+01  1.031333333333333394e+04  1.022878386337650198e+02
4.500000000000000000e+01  1.033463768115942003e+04  1.023934325963212473e+02
4.512500000000000000e+01  1.044054794520547875e+04  1.000574051783222700e+02
4.525000000000000000e+01  1.029767123287671166e+04  9.937041443207493785e+01
4.537500000000000000e+01  1.023183098591549242e+04  1.004376457825412103e+02
4.550000000000000000e+01  1.017859154929577380e+04  1.001760006435648052e+02
4.562500000000000000e+01  1.002115942028985410e+04  1.008285357167642786e+02
4.575000000000000000e+01  1.052900000000000000e+04  1.026109155986827801e+02
4.587500000000000000e+01  1.092710144927536203e+04  1.052875360068574082e+02
4.600000000000000000e+01  1.150333333333333394e+04  1.080279978023231990e+02
4.612500000000000000e+01  1.191029411764705947e+04  1.107275796078517658e+02
4.625000000000000000e+01  1.295600000000000000e+04  1.138244262010575625e+02
4.637500000000000000e+01  1.299632352941176396e+04  1.156657613086100298e+02
4.650000000000000000e+01  1.320400000000000000e+04  1.149086593777857956e+02
4.662500000000000000e+01  1.297763157894736833e+04  1.093301500842815273e+02
4.675000000000000000e+01  1.266100000000000000e+04  1.125211091306871225e+02
4.687500000000000000e+01  1.240361111111111131e+04  1.098137803648735655e+02
4.700000000000000000e+01  1.149115942028985410e+04  1.079708199589726973e+02
4.712500000000000000e+01  1.049800000000000000e+04  1.024597481941079167e+02
4.725000000000000000e+01  9.748000000000000000e+03  9.873196037757985266e+01
4.737500000000000000e+01  9.256000000000000000e+03  9.620810776644555062e+01
4.750000000000000000e+01  8.901323529411763957e+03  9.572422453396923459e+01
4.762500000000000000e+01  9.100000000000000000e+03  9.678660578212013377e+01
4.775000000000000000e+01  8.622352941176470267e+03  9.421226861239159689e+01
4.787500000000000000e+01  8.862608695652173992e+03  9.482115955807010721e+01
4.800000000000000000e+01  8.442368421052631675e+03  8.818086896243157469e+01
4.812500000000000000e+01  8.684861111111111313e+03  9.188914500165839172e+01
4.825000000000000000e+01  8.605070422535211037e+03  9.210793802691451049e+01
4.837500000000000000e+01  8.666000000000000000e+03  9.309135298189623597e+01
4.850000000000000000e+01  8.612957746478874469e+03  9.215014097896953160e+01
4.862500000000000000e+01  8.573478260869565929e+03  9.326162967157560502e+01
4.875000000000000000e+01  8.611029411764706310e+03  9.415038493123097396e+01
4.887500000000000000e+01  8.634705882352942353e+03  9.427973175645549020e+01
4.900000000000000000e+01  8.826176470588236043e+03  9.531930495022386651e+01
4.912500000000000000e+01  8.768260869565217945e+03  9.431509483667855420e+01
4.925000000000000000e+01  9.588955223880597259e+03  1.000915152644566319e+02
4.937500000000000000e+01  1.047307692307692378e+04  9.694800249296901029e+01
4.950000000000000000e+01  1.213333333333333394e+04  1.086107558959806454e+02
4.962500000000000000e+01  1.411436619718309885e+04  1.179642840315742802e+02
4.975000000000000000e+01  1.574805555555555657e+04  1.237360479726956157e+02
4.987500000000000000e+01  1.724367647058823422e+04  1.332322912270352617e+02
5.000000000000000000e+01  1.824971014492753602e+04  1.360668905272424070e+02
5.012500000000000000e+01  1.848304347826086814e+04  1.369339755999145325e+02
5.025000000000000000e+01  1.832764705882352791e+04  1.373560901515841408e+02
5.037500000000000000e+01  1.758132352941176578e+04  1.345303730771486812e+02
5.050000000000000000e+01  1.629970588235294053e+04  1.295342001038327737e+02
5.062500000000000000e+01  1.488220588235294053e+04  1.237736555979066253e+02
5.075000000000000000e+01  1.222545454545454595e+04  1.054231928314489011e+02
5.087500000000000000e+01  1.053402777777777737e+04  1.011998809043851111e+02
5.100000000000000000e+01  9.638904109589042491e+03  9.613940275776437261e+01
5.112500000000000000e+01  8.939710144927536021e+03  9.523272106540214565e+01
5.125000000000000000e+01  8.700000000000000000e+03  9.327379053088814942e+01
5.137500000000000000e+01  8.440147058823529733e+03  9.321151580250527502e+01
5.150000000000000000e+01  8.779420289855072042e+03  9.437509345728014409e+01
5.162500000000000000e+01  8.378382352941176578e+03  9.286983021047146281e+01
5.175000000000000000e+01  8.773333333333332121e+03  9.434237166717529988e+01
5.187500000000000000e+01  8.504492753623188037e+03  9.288566235857739173e+01
5.200000000000000000e+01  8.470000000000000000e+03  9.337621563898819943e+01
5.212500000000000000e+01  8.105454545454545041e+03  8.584052097536638826e+01
5.225000000000000000e+01  8.474861111111111313e+03  9.077140685518284613e+01
5.237500000000000000e+01  8.265915492957747119e+03  9.027454872768133498e+01
5.250000000000000000e+01  8.312753623188405982e+03  9.183261029383592700e+01
5.262500000000000000e+01  8.310000000000000000e+03  9.115920140062658561e+01
5.275000000000000000e+01  8.325882352941176578e+03  9.257840593612931457e+01
5.287500000000000000e+01  8.354647887323942996e+03  9.075779189865396290e+01
5.300000000000000000e+01  8.295000000000000000e+03  9.240655056994225447e+01
5.312500000000000000e+01  8.534927536231884005e+03  9.305171754570818621e+01
5.325000000000000000e+01  8.286764705882353155e+03  9.236066846653272933e+01
5.337500000000000000e+01  8.810735294117646845e+03  9.523588907273375526e+01
5.350000000000000000e+01  8.501733333333333576e+03  8.907834254806896013e+01
5.362500000000000000e+01  8.803698630136987049e+03  9.187982801475939709e+01
5.375000000000000000e+01  8.804225352112674955e+03  9.316770995435736324e+01
5.387500000000000000e+01  8.869710144927536021e+03  9.485914119770991704e+01
5.400000000000000000e+01  9.016197183098591267e+03  9.428259908582757021e+01
5.412500000000000000e+01  8.551159420289855916e+03  9.314015925990636902e+01
5.425000000000000000e+01  8.808840579710144084e+03  9.453308910607876214e+01
5.437500000000000000e+01  8.635735294117646845e+03  9.428535150621500804e+01
5.450000000000000000e+01  8.593768115942028089e+03  9.337192018985787456e+01
5.462500000000000000e+01  8.404117647058823422e+03  9.301235174886544144e+01
5.475000000000000000e+01  8.971492537313433786e+03  9.681529403140376644e+01
5.487500000000000000e+01  8.387105263157895024e+03  8.789178217536165505e+01
5.500000000000000000e+01  8.433561643835617360e+03  8.992762044414652678e+01
5.512500000000000000e+01  8.727323943661971498e+03  9.275992608943496975e+01
5.525000000000000000e+01  8.570000000000000000e+03  9.257429448826493967e+01
5.537500000000000000e+01  8.641000000000000000e+03  9.295697929687690930e+01
5.550000000000000000e+01  8.374637681159420026e+03  9.217379910666552689e+01
5.562500000000000000e+01  8.301408450704224379e+03  9.046815575062673531e+01
5.575000000000000000e+01  8.249705882352942353e+03  9.215391630667380696e+01
5.587500000000000000e+01  8.865294117647057647e+03  9.553029918451915137e+01
5.600000000000000000e+01  8.714477611940297720e+03  9.541843690832070024e+01
5.612500000000000000e+01  9.590000000000000000e+03  9.935823480481833769e+01
5.625000000000000000e+01  1.002891891891891828e+04  9.740028333414616668e+01
5.637500000000000000e+01  1.136364864864864830e+04  1.036793005876453435e+02
5.650000000000000000e+01  1.240971830985915403e+04  1.106116338588828540e+02
5.662500000000000000e+01  1.378802816901408369e+04  1.165925837657302111e+02
5.675000000000000000e+01  1.475400000000000000e+04  1.214660446379974985e+02
5.687500000000000000e+01  1.561100000000000000e+04  1.249439874503771364e+02
5.700000000000000000e+01  1.660420289855072406e+04  1.297876863198849549e+02
5.712500000000000000e+01  1.592808823529411711e+04  1.280490586403708164e+02
5.725000000000000000e+01  1.635735294117647209e+04  1.297630592930570117e+02
5.737500000000000000e+01  1.581897058823529551e+04  1.276096956702967304e+02
5.750000000000000000e+01  1.548776119402985205e+04  1.272055149690399674e+02
5.762500000000000000e+01  1.294125000000000000e+04  1.121684930510049014e+02
5.775000000000000000e+01  1.162921052631578823e+04  1.034945165622254137e+02
5.787500000000000000e+01  1.026830985915492965e+04  1.006165283471439409e+02
5.800000000000000000e+01  9.461666666666666060e+03  9.591059687329963879e+01
5.812500000000000000e+01  8.504000000000000000e+03  9.221713506718802478e+01
5.825000000000000000e+01  8.104000000000000000e+03  9.002221947941519886e+01
5.837500000000000000e+01  8.124117647058823422e+03  9.144978011858215439e+01
5.850000000000000000e+01  8.687205882352942353e+03  9.456591319136225593e+01
5.862500000000000000e+01  5.272985074626865753e+03  7.422323681933116291e+01
5.875000000000000000e+01  8.522753623188405982e+03  9.298533105625001838e+01
5.887500000000000000e+01  9.227462686567165292e+03  9.818672342841207978e+01
5.900000000000000000e+01  8.351690140845070346e+03  9.074172525493230523e+01
5.912500000000000000e+01  8.176363636363636033e+03  8.621518341475398017e+01
5.925000000000000000e+01  8.077222222222221717e+03  8.861633561748986665e+01
5.937500000000000000e+01  8.145633802816901152e+03  8.961532550940998476e+01
5.950000000000000000e+01  8.435000000000000000e+03  9.184225606985054924e+01
5.962500000000000000e+01  8.534927536231884005e+03  9.305171754570818621e+01
5.975000000000000000e+01  9.080441176470587379e+03  9.668253707768818117e+01
5.987500000000000000e+01  9.376956521739130039e+03  9.753386305455170202e+01
6.000000000000000000e+01  1.066470588235294053e+04  1.047777347647015489e+02
6.012500000000000000e+01  1.085208955223880730e+04  1.064800639077650857e+02
6.025000000000000000e+01  1.198115942028985410e+04  1.102488068501798324e+02
6.037500000000000000e+01  1.218940298507462649e+04  1.128503307420294277e+02
6.050000000000000000e+01  1.331814814814814781e+04  1.072823878617232083e+02
6.062500000000000000e+01  1.336416666666666606e+04  1.139865773449436404e+02
6.075000000000000000e+01  1.346900000000000000e+04  1.160560209553989495e+02
6.087500000000000000e+01  1.330200000000000000e+04  1.153342967204465168e+02
6.100000000000000000e+01  1.305246376811594200e+04  1.150722812395880226e+02
6.112500000000000000e+01  1.254420289855072406e+04  1.128095870950634492e+02
6.125000000000000000e+01  1.142776119402985205e+04  1.092677994368081471e+02
6.137500000000000000e+01  1.095855072463768010e+04  1.054389411003215145e+02
6.150000000000000000e+01  9.957500000000000000e+03  1.012440993197076295e+02
6.162500000000000000e+01  9.407164179104478535e+03  9.913818883574353436e+01
6.175000000000000000e+01  8.354347826086956047e+03  9.206207324850366547e+01
6.187500000000000000e+01  8.237250000000000000e+03  8.489754855118020771e+01
6.200000000000000000e+01  7.984861111111111313e+03  8.810822557275936617e+01
6.212500000000000000e+01  7.953000000000000000e+03  8.917959407846618092e+01
6.225000000000000000e+01  7.984000000000000909e+03  8.935323161475470499e+01
6.237500000000000000e+01  8.095294117647058556e+03  9.128740878927501967e+01
6.250000000000000000e+01  8.138260869565217035e+03  9.086367084412263750e+01
6.262500000000000000e+01  8.261014492753623927e+03  9.154637808496134710e+01
6.275000000000000000e+01  8.667826086956521976e+03  9.377337977743698616e+01
6.287500000000000000e+01  8.988208955223879457e+03  9.690544913791981685e+01
6.300000000000000000e+01  1.008617647058823604e+04  1.018961663642120641e+02
6.312500000000000000e+01  1.035492753623188401e+04  1.024938971344170398e+02
6.325000000000000000e+01  1.174653846153846280e+04  1.026730991350512028e+02
6.337500000000000000e+01  1.268652777777777737e+04  1.110591024112614633e+02
6.350000000000000000e+01  1.339169014084507035e+04  1.149046334433414529e+02
6.362500000000000000e+01  1.393405797101449207e+04  1.188949151148173655e+02
6.375000000000000000e+01  1.417000000000000000e+04  1.190378091196238444e+02
6.387500000000000000e+01  1.442811594202898414e+04  1.209843753202189731e+02
6.400000000000000000e+01  1.394544117647058738e+04  1.198148622294941532e+02
6.412500000000000000e+01  1.393507246376811599e+04  1.188992432091423552e+02
6.425000000000000000e+01  1.335250000000000000e+04  1.172400127440938604e+02
6.437500000000000000e+01  1.323608695652173810e+04  1.158788777289360326e+02
6.450000000000000000e+01  1.134424242424242402e+04  1.096894355356791237e+02
6.462500000000000000e+01  1.055545454545454595e+04  9.795850023655447103e+01
6.475000000000000000e+01  9.483561643835615541e+03  9.536155532401396329e+01
6.487500000000000000e+01  8.764788732394366889e+03  9.295881348085877960e+01
6.500000000000000000e+01  8.386000000000000000e+03  9.157510578754468611e+01
6.512500000000000000e+01  8.033768115942028999e+03  9.027845555785835074e+01
6.525000000000000000e+01  8.124000000000000909e+03  9.013323471394998876e+01
6.537500000000000000e+01  7.794347826086956047e+03  8.892305319085636484e+01
6.550000000000000000e+01  7.933676470588236043e+03  9.037156575048244633e+01
6.562500000000000000e+01  7.570144927536231990e+03  8.763479430490406230e+01
6.575000000000000000e+01  8.054179104477611872e+03  9.173229523866022816e+01
6.587500000000000000e+01  7.611969696969697907e+03  8.985155087006421581e+01
6.600000000000000000e+01  8.328157894736841627e+03  8.758237120078649696e+01
6.612500000000000000e+01  8.688399999999999636e+03  9.005094854210771871e+01
6.625000000000000000e+01  9.333661971830984839e+03  9.592810820639962799e+01
6.637500000000000000e+01  9.555000000000000000e+03  9.774968030638258654e+01
6.650000000000000000e+01  1.024200000000000000e+04  1.012027667605980099e+02
6.662500000000000000e+01  1.088550724637681196e+04  1.050869555223767122e+02
6.675000000000000000e+01  1.124900000000000000e+04  1.060613030280130005e+02
6.687500000000000000e+01  1.199367647058823604e+04  1.111144979779850956e+02
6.700000000000000000e+01  1.235970149253731324e+04  1.136359140516430983e+02
6.712500000000000000e+01  1.275253731343283471e+04  1.154276675969419728e+02
6.725000000000000000e+01  1.188303030303030209e+04  1.122640367961147803e+02
6.737500000000000000e+01  1.299881578947368325e+04  1.094193469652634434e+02
6.750000000000000000e+01  1.219586666666666679e+04  1.066902473935124362e+02
6.762500000000000000e+01  1.201732394366197150e+04  1.088488211233747052e+02
6.775000000000000000e+01  1.136041666666666606e+04  1.050944790987473283e+02
6.787500000000000000e+01  1.053300000000000000e+04  1.026304048515838190e+02
6.800000000000000000e+01  9.958260869565217945e+03  1.005116087368183742e+02
6.812500000000000000e+01  9.156000000000000000e+03  9.568698971124548791e+01
6.825000000000000000e+01  8.669552238805970774e+03  9.517216581028910127e+01
6.837500000000000000e+01  8.106212121212121019e+03  9.272269249927920498e+01
6.850000000000000000e+01  8.612089552238805481e+03  9.485623596969811899e+01
6.862500000000000000e+01  8.035373134328357992e+03  9.162513826040637355e+01
6.875000000000000000e+01  7.988513513513514226e+03  8.692929294686868502e+01
6.887500000000000000e+01  7.843684210526315837e+03  8.499674101622662192e+01
6.900000000000000000e+01  8.060694444444444343e+03  8.852562490845291165e+01
6.912500000000000000e+01  7.955352112676056095e+03  8.856243503778260617e+01
6.925000000000000000e+01  7.889295774647886901e+03  8.819398467441779133e+01
6.937500000000000000e+01  8.010000000000000000e+03  8.949860334105778747e+01
6.950000000000000000e+01  8.141617647058823422e+03  9.154822220895050577e+01
6.962500000000000000e+01  8.007164179104477626e+03  9.146416740159702385e+01
6.975000000000000000e+01  7.827462686567164383e+03  9.043199704995630839e+01
6.987500000000000000e+01  8.741641791044776255e+03  9.556703713968911984e+01
7.000000000000000000e+01  8.181515151515151047e+03  9.315237278050024372e+01
7.012500000000000000e+01  8.775890410958903885e+03  9.173460296077784903e+01
7.025000000000000000e+01  8.417051282051281305e+03  8.691239250573916308e+01
7.037500000000000000e+01  8.583150684931506476e+03  9.072165378234026889e+01
7.050000000000000000e+01  8.603098591549296543e+03  9.209738426715179571e+01
7.062500000000000000e+01  8.785492957746479078e+03  9.306854259261520212e+01
7.075000000000000000e+01  8.712941176470587379e+03  9.470588235294118817e+01
7.087500000000000000e+01  8.446323529411763957e+03  9.324561549847038577e+01
7.100000000000000000e+01  8.896268656716418263e+03  9.640855275508798172e+01
7.112500000000000000e+01  8.684179104477612782e+03  9.525241700333178585e+01
7.125000000000000000e+01  8.820000000000000000e+03  9.599440282190586515e+01
7.137500000000000000e+01  8.075074626865672144e+03  9.185121192747662633e+01
7.150000000000000000e+01  8.609000000000000000e+03  9.278469701410895709e+01
7.162500000000000000e+01  8.310987654320986621e+03  8.474865786493037945e+01
7.175000000000000000e+01  8.342465753424658033e+03  8.944062105701604537e+01
7.187500000000000000e+01  8.199722222222222626e+03  8.928578924159110386e+01
7.200000000000000000e+01  8.184927536231884005e+03  9.112381507837642403e+01
7.212500000000000000e+01  8.422647058823529733e+03  9.311483218219501623e+01
7.225000000000000000e+01  7.957352941176470267e+03  9.050631322490168884e+01
7.237500000000000000e+01  8.608955223880597259e+03  9.483897316462271476e+01
7.250000000000000000e+01  8.375294117647057647e+03  9.285271292524443254e+01
7.262500000000000000e+01  8.698805970149252971e+03  9.533260064076745266e+01
7.275000000000000000e+01  8.232835820895523284e+03  9.274411173027166910e+01
7.287500000000000000e+01  9.067611940298507761e+03  9.733254550887512835e+01
7.300000000000000000e+01  8.651666666666667879e+03  8.491008315990640654e+01
7.312500000000000000e+01  1.180027397260274120e+04  1.063735456145246872e+02
7.325000000000000000e+01  1.025352112676056277e+04  1.005440467468999799e+02
7.337500000000000000e+01  5.487391304347826917e+03  7.461178669992942503e+01
7.350000000000000000e+01  9.543676470588236043e+03  9.911797434053139000e+01
7.362500000000000000e+01  9.441764705882353155e+03  9.858734030198840514e+01
7.375000000000000000e+01  9.537500000000000000e+03  9.908589559509644573e+01
7.387500000000000000e+01  9.437647058823527914e+03  9.856584050011855425e+01
7.400000000000000000e+01  9.988059701492536988e+03  1.021532488729101118e+02
7.412500000000000000e+01  9.236865671641789959e+03  9.823673789303346382e+01
7.425000000000000000e+01  9.907611940298507761e+03  1.017410259213841073e+02
7.437500000000000000e+01  9.315903614457831281e+03  8.863851409442766283e+01
7.450000000000000000e+01  9.195540540540541770e+03  9.326566514589342205e+01
7.462500000000000000e+01  9.128000000000000000e+03  9.554056729996949571e+01
7.475000000000000000e+01  8.727681159420289987e+03  9.409659553971923174e+01
7.487500000000000000e+01  9.045217391304346165e+03  9.579304514642333857e+01
7.500000000000000000e+01  8.481323529411763957e+03  9.343861204798200504e+01
7.512500000000000000e+01  9.163823529411763957e+03  9.712542278345588898e+01
7.525000000000000000e+01  8.483382352941176578e+03  9.344995237353475659e+01
7.537500000000000000e+01  9.119850746268655712e+03  9.761251083862653388e+01
7.550000000000000000e+01  8.218823529411763957e+03  9.198126783871808243e+01
7.562500000000000000e+01  9.407164179104478535e+03  9.913818883574353436e+01
7.575000000000000000e+01  8.960864197530865567e+03  8.799975405599474243e+01
7.587500000000000000e+01  9.549726027397258804e+03  9.569363371259689188e+01
7.600000000000000000e+01  9.728028169014083687e+03  9.793372089204190445e+01
7.612500000000000000e+01  1.022000000000000000e+04  1.018239458184025779e+02
7.625000000000000000e+01  1.104072463768115813e+04  1.058335255940977220e+02
7.637500000000000000e+01  1.082463768115942003e+04  1.047927310844256255e+02
7.650000000000000000e+01  1.222014705882352791e+04  1.121586516894213048e+02
7.662500000000000000e+01  1.160044117647058738e+04  1.092777682002948438e+02
7.675000000000000000e+01  1.342764705882352791e+04  1.175694597022172161e+02
7.687500000000000000e+01  1.213089552238805845e+04  1.125791719136521607e+02
7.700000000000000000e+01  1.404560606060606005e+04  1.220526726981593271e+02
7.712500000000000000e+01  1.274177215189873459e+04  1.062552486050115164e+02
7.725000000000000000e+01  1.385621621621621489e+04  1.144868182625414903e+02
7.737500000000000000e+01  1.332916666666666606e+04  1.138372172755335612e+02
7.750000000000000000e+01  1.294100000000000000e+04  1.137585161647250089e+02
7.762500000000000000e+01  1.351608695652173810e+04  1.170981309617373967e+02
7.775000000000000000e+01  1.250260869565217399e+04  1.126224041792990391e+02
7.787500000000000000e+01  1.209478260869565383e+04  1.107703449176245130e+02
7.800000000000000000e+01  1.140485294117647209e+04  1.083526178381839742e+02
7.812500000000000000e+01  1.182382352941176396e+04  1.103248976658609877e+02
7.825000000000000000e+01  1.008424242424242402e+04  1.034186087305967590e+02
7.837500000000000000e+01  1.097468750000000000e+04  1.095607797212350931e+02
7.850000000000000000e+01  9.754810126582278826e+03  9.297043962360876890e+01
7.862500000000000000e+01  9.928800000000001091e+03  9.626463525095806517e+01
7.875000000000000000e+01  9.434444444444443434e+03  9.577252499130362651e+01
7.887500000000000000e+01  9.372112676056338387e+03  9.612549656084816263e+01
7.900000000000000000e+01  9.698550724637680105e+03  9.919228513746344333e+01
7.912500000000000000e+01  9.260000000000000000e+03  9.622889378975526142e+01
7.925000000000000000e+01  9.521029411764704491e+03  9.900030145702243090e+01
7.937500000000000000e+01  9.216666666666666060e+03  9.669664702508417520e+01
7.950000000000000000e+01  9.214925373134328765e+03  9.811999781864747661e+01
7.962500000000000000e+01  8.919531250000000000e+03  9.877113598965792107e+01
7.975000000000000000e+01  9.581250000000000000e+03  1.023693908719789221e+02
7.987500000000000000e+01  9.305454545454544132e+03  9.197556269048537558e+01
8.000000000000000000e+01  9.231025641025640653e+03  9.101787615851968383e+01
8.012500000000000000e+01  9.335277777777777374e+03  9.526785662631881735e+01
8.025000000000000000e+01  9.058194444444443434e+03  9.384336914294352994e+01
8.037500000000000000e+01  9.538000000000000000e+03  9.766268478799874231e+01
8.050000000000000000e+01  8.718000000000000000e+03  9.337023080189959501e+01
8.062500000000000000e+01  9.704637681159420026e+03  9.922340754113807293e+01
8.075000000000000000e+01  8.685147058823529733e+03  9.455470670756498919e+01
8.087500000000000000e+01  1.007890625000000000e+04  1.049943032308777191e+02
8.100000000000000000e+01  8.975312500000000000e+03  9.907950366687853716e+01
8.112500000000000000e+01  9.716875000000000000e+03  1.030913770945465728e+02
8.125000000000000000e+01  9.108289473684211771e+03  9.159265248326236986e+01
8.137500000000000000e+01  9.291625000000000000e+03  9.016746572350804456e+01
8.150000000000000000e+01  9.466301369863012951e+03  9.527473582314470946e+01
8.162500000000000000e+01  9.200138888888888687e+03  9.457578693993851005e+01
8.175000000000000000e+01  9.650140845070422074e+03  9.754088049827768714e+01
8.187500000000000000e+01  9.007323943661971498e+03  9.423619382246720022e+01
8.200000000000000000e+01  9.883188405797100131e+03  1.001320279449780770e+02
8.212500000000000000e+01  8.826562500000000000e+03  9.825503923145620888e+01
8.225000000000000000e+01  9.926875000000000000e+03  1.041994219333773373e+02
8.237500000000000000e+01  9.090156250000000000e+03  9.971137547159551673e+01
8.250000000000000000e+01  1.015437500000000000e+04  1.053866578664016629e+02
8.262500000000000000e+01  9.388630136986301295e+03  9.488306498932085731e+01
8.275000000000000000e+01  9.879166666666666060e+03  9.073389051996443300e+01
8.287500000000000000e+01  1.014720000000000073e+04  9.731762430310348577e+01
8.300000000000000000e+01  9.746301369863012951e+03  9.667351466071224309e+01
8.312500000000000000e+01  1.047569444444444343e+04  1.009192891973519863e+02
8.325000000000000000e+01  9.997183098591549424e+03  9.927929140982392653e+01
8.337500000000000000e+01  1.086750000000000000e+04  1.090244382007997217e+02
8.350000000000000000e+01  1.006796875000000000e+04  1.049373185302183202e+02
8.362500000000000000e+01  1.136296875000000000e+04  1.114820481975124977e+02
8.375000000000000000e+01  1.006468750000000000e+04  1.049202170848164002e+02
8.387500000000000000e+01  1.162000000000000000e+04  1.127358638588448514e+02
8.400000000000000000e+01  9.914843750000000000e+03  1.041362585825057465e+02
8.412500000000000000e+01  1.139138297872340445e+04  9.210290316482846151e+01
8.425000000000000000e+01  1.085727272727272612e+04  9.934912145501992597e+01
8.437500000000000000e+01  1.045053333333333285e+04  9.876148597054982758e+01
8.450000000000000000e+01  1.168712328767123290e+04  1.058623188382992737e+02
8.462500000000000000e+01  9.863538461538462798e+03  1.030644079658400472e+02
8.475000000000000000e+01  1.145265625000000000e+04  1.119211453365158349e+02
8.487500000000000000e+01  9.744218750000000000e+03  1.032363272196977135e+02
8.500000000000000000e+01  1.084562500000000000e+04  1.089146562394152653e+02
8.512500000000000000e+01  9.833906250000000000e+03  1.037103416296441480e+02
8.525000000000000000e+01  1.082484375000000000e+04  1.088102607825314436e+02
8.537500000000000000e+01  1.041140625000000000e+04  1.067121154599490609e+02
8.550000000000000000e+01  9.870729166666666060e+03  8.483753110521178087e+01
8.562500000000000000e+01  1.001000000000000000e+04  9.358819369984655623e+01
8.575000000000000000e+01  9.772727272727272066e+03  9.425655160603508875e+01
8.587500000000000000e+01  1.060552238805970046e+04  1.052634624399107111e+02
8.600000000000000000e+01  9.367968750000000000e+03  1.012235931999674676e+02
8.612500000000000000e+01  1.102281250000000000e+04  1.098007339314041246e+02
8.625000000000000000e+01  9.703750000000000000e+03  1.030217285940203880e+02
8.637500000000000000e+01  1.094953125000000000e+04  1.094351397161236434e+02
8.650000000000000000e+01  9.936718750000000000e+03  1.042510725739188757e+02
8.662500000000000000e+01  1.087625000000000000e+04  1.090683200452817090e+02
8.675000000000000000e+01  9.956406250000000000e+03  1.043542971608620462e+02
8.687500000000000000e+01  1.092839999999999964e+04  8.746359242564874137e+01
8.700000000000000000e+01  1.080964705882352973e+04  9.435074076941326382e+01
8.712500000000000000e+01  1.043788732394366161e+04  1.014439491858599212e+02
8.725000000000000000e+01  1.165609375000000000e+04  1.129108167496033133e+02
8.737500000000000000e+01  1.012703125000000000e+04  1.052446693647117684e+02
8.750000000000000000e+01  1.133562500000000000e+04  1.113478326854636151e+02
8.762500000000000000e+01  1.039609375000000000e+04  1.066336135515555839e+02
8.775000000000000000e+01  1.112671875000000000e+04  1.103170369109526945e+02
8.787500000000000000e+01  1.518890625000000000e+04  1.288909081779529515e+02
8.800000000000000000e+01  1.540000000000000000e+03  4.104113789845501259e+01
8.812500000000000000e+01  1.345203125000000000e+04  1.212978119328106459e+02
8.825000000000000000e+01  1.093733944954128492e+04  8.380918483679558051e+01
8.837500000000000000e+01  1.061132530120482079e+04  9.460079542473211234e+01
8.850000000000000000e+01  9.700468750000000000e+03  1.030043091104081014e+02
8.862500000000000000e+01  1.065640625000000000e+04  1.079603831779857188e+02
8.875000000000000000e+01  9.639218750000000000e+03  1.026786029697156550e+02
8.887500000000000000e+01  1.058093750000000000e+04  1.075774158019470121e+02
8.900000000000000000e+01  9.627187500000000000e+03  1.026145034979217741e+02
8.912500000000000000e+01  1.054812500000000000e+04  1.074104823504205370e+02
8.925000000000000000e+01  9.590000000000000000e+03  1.024161242187967247e+02
8.937500000000000000e+01  1.087406250000000000e+04  1.090573512394969242e+02
8.950000000000000000e+01  9.509062500000000000e+03  1.019830236332253435e+02
8.962500000000000000e+01  1.055632812500000000e+04  7.598020757644306400e+01
8.975000000000000000e+01  1.160796875000000000e+04  1.126774858625825857e+02
8.987500000000000000e+01  1.014890625000000000e+04  1.053582754743902399e+02
9.000000000000000000e+01  1.181140625000000000e+04  1.136605718177482061e+02
9.012500000000000000e+01  1.028671875000000000e+04  1.060711960562927771e+02
9.025000000000000000e+01  1.194265625000000000e+04  1.142903332458064796e+02
9.037500000000000000e+01  1.052296875000000000e+04  1.072823241280337783e+02
9.050000000000000000e+01  1.193390625000000000e+04  1.142484571490464447e+02
9.062500000000000000e+01  1.065968750000000000e+04  1.079770031216138193e+02
9.075000000000000000e+01  1.172500000000000000e+04  1.132440671735168678e+02
9.087500000000000000e+01  1.155500000000000000e+04  1.074941858892842674e+02
9.100000000000000000e+01  1.119885245901639246e+04  8.015965994839419295e+01
9.112500000000000000e+01  1.201265625000000000e+04  1.146247912688939294e+02
9.125000000000000000e+01  1.068921875000000000e+04  1.081264676562242073e+02
9.137500000000000000e+01  1.212093750000000000e+04  1.151402422727388597e+02
9.150000000000000000e+01  1.032828125000000000e+04  1.062852652872800689e+02
9.162500000000000000e+01  1.212750000000000000e+04  1.151714075845216030e+02
9.175000000000000000e+01  1.014125000000000000e+04  1.053185272755938229e+02
9.187500000000000000e+01  1.195687500000000000e+04  1.143583491978176454e+02
9.200000000000000000e+01  9.851406250000000000e+03  1.038025798616657767e+02
9.212500000000000000e+01  1.144937500000000000e+04  1.119051111712507947e+02
9.225000000000000000e+01  1.009750000000000000e+04  8.962199658971714200e+01
9.237500000000000000e+01  1.066153846153846280e+04  8.471148389066608786e+01
9.250000000000000000e+01  1.104906250000000000e+04  1.099313972865577682e+02
9.262500000000000000e+01  9.635937500000000000e+03  1.026611252647515045e+02
9.275000000000000000e+01  1.074171875000000000e+04  1.083916734939197255e+02
9.287500000000000000e+01  1.019703125000000000e+04  1.056077787366418335e+02
9.300000000000000000e+01  1.064656250000000000e+04  1.079105079886801377e+02
9.312500000000000000e+01  9.925781250000000000e+03  1.041936813928152645e+02
9.325000000000000000e+01  1.150406250000000000e+04  1.121720480305811236e+02
9.337500000000000000e+01  1.015109375000000000e+04  1.053696293486054714e+02
9.350000000000000000e+01  1.067500000000000000e+04  9.915763632774464043e+01
9.362500000000000000e+01  1.037707317073170816e+04  9.411948308913565597e+01
9.375000000000000000e+01  1.075214285714285688e+04  8.763619138698534528e+01
9.387500000000000000e+01  1.135421875000000000e+04  1.114391168208564977e+02
9.400000000000000000e+01  1.013796875000000000e+04  1.053014877402617628e+02
9.412500000000000000e+01  1.111031250000000000e+04  1.102356761528453575e+02
9.425000000000000000e+01  1.023421875000000000e+04  1.058001737135270588e+02
9.437500000000000000e+01  1.093421875000000000e+04  1.093585925193466437e+02
9.450000000000000000e+01  1.028125000000000000e+04  1.060429968809822014e+02
9.462500000000000000e+01  1.085546875000000000e+04  1.089640718095304095e+02
9.475000000000000000e+01  9.983380281690142510e+03  9.921073173708165882e+01
9.487500000000000000e+01  1.086680000000000109e+04  1.007092183797822429e+02
9.500000000000000000e+01  1.070291139240506345e+04  9.738373772359091163e+01
9.512500000000000000e+01  1.006305263157894660e+04  8.610970262651353835e+01
9.525000000000000000e+01  1.115515625000000000e+04  1.104579202612356710e+02
9.537500000000000000e+01  9.890781250000000000e+03  1.040098168068163744e+02
9.550000000000000000e+01  1.135312500000000000e+04  1.114337492358127548e+02
9.562500000000000000e+01  1.014234375000000000e+04  1.053242065081076220e+02
9.575000000000000000e+01  1.073406250000000000e+04  1.083530380717356678e+02
9.587500000000000000e+01  1.017625000000000000e+04  1.055001110781405771e+02
9.600000000000000000e+01  1.098485294117647209e+04  1.063387833822217061e+02
9.612500000000000000e+01  1.001958904109589093e+04  9.801951391381294343e+01
9.625000000000000000e+01  1.091136986301369870e+04  1.022885985967636913e+02
9.637500000000000000e+01  1.072000000000000000e+04  9.871906880362347181e+01
9.650000000000000000e+01  1.096344827586206884e+04  9.392105876441794976e+01
9.662500000000000000e+01  1.146000000000000000e+04  1.070513895285810833e+02
9.675000000000000000e+01  1.060500000000000000e+04  1.076996692195477436e+02
9.687500000000000000e+01  1.207609375000000000e+04  1.149270531209362360e+02
9.700000000000000000e+01  1.063781250000000000e+04  1.078661551269674135e+02
9.712500000000000000e+01  1.183437500000000000e+04  1.137710317095261274e+02
9.725000000000000000e+01  1.123865671641791050e+04  1.083599564021756123e+02
9.737500000000000000e+01  1.234200000000000000e+04  1.110945543219828551e+02
9.750000000000000000e+01  1.132055555555555657e+04  1.049099408016816426e+02
9.762500000000000000e+01  1.200791666666666606e+04  1.080479681712059232e+02
9.775000000000000000e+01  1.207826666666666642e+04  1.061746150870766741e+02
9.787500000000000000e+01  1.205024390243902417e+04  1.014238313970283230e+02
9.800000000000000000e+01  1.246662162162161985e+04  1.085944297955242632e+02
9.812500000000000000e+01  1.148109375000000000e+04  1.120600119983149909e+02
9.825000000000000000e+01  1.291718750000000000e+04  1.188619948853501285e+02
9.837500000000000000e+01  1.155218750000000000e+04  1.124064280996643106e+02
9.850000000000000000e+01  1.290757575757575796e+04  1.170036455680621827e+02
9.862500000000000000e+01  1.118681159420289987e+04  1.065314005280448271e+02
9.875000000000000000e+01  1.307100000000000000e+04  1.143284741435833212e+02
9.887500000000000000e+01  1.155788732394366161e+04  1.067478345379240210e+02
9.900000000000000000e+01  1.203125000000000000e+04  1.081528946034784155e+02
9.912500000000000000e+01  1.220780821917808134e+04  1.081948125856537359e+02
9.925000000000000000e+01  1.192423076923076951e+04  1.034467628377870483e+02
9.937500000000000000e+01  1.268000000000000000e+04  1.073651373923245558e+02
9.950000000000000000e+01  1.097906250000000000e+04  1.095826154523380609e+02
9.962500000000000000e+01  1.245671875000000000e+04  1.167241882936544641e+02
9.975000000000000000e+01  1.148646153846153720e+04  1.112206613132586028e+02
9.987500000000000000e+01  1.251579710144927594e+04  1.126817885252022364e+02
1.000000000000000000e+02  1.146275362318840598e+04  1.078372870916761457e+02
1.001250000000000000e+02  1.220434782608695787e+04  1.112709415447812660e+02
1.002500000000000000e+02  1.153300000000000000e+04  1.073918060188951245e+02
1.003750000000000000e+02  1.250042253521126622e+04  1.110151352112987269e+02
1.005000000000000000e+02  1.226630136986301295e+04  1.084537080648666887e+02
1.006250000000000000e+02  1.229052631578947330e+04  1.063965300498479536e+02
1.007500000000000000e+02  1.289256410256410345e+04  1.075650958054444999e+02
1.008750000000000000e+02  1.191859375000000000e+04  1.141751370223066573e+02
1.010000000000000000e+02  1.336453125000000000e+04  1.209026718260911792e+02
1.011250000000000000e+02  1.171779411764705947e+04  1.098291178199445852e+02
1.012500000000000000e+02  1.320565217391304213e+04  1.157455763185059539e+02
1.013750000000000000e+02  1.210898550724637607e+04  1.108353646217201742e+02
1.015000000000000000e+02  1.305246376811594200e+04  1.150722812395880226e+02
1.016250000000000000e+02  1.250971014492753602e+04  1.126543842553651871e+02
1.017500000000000000e+02  1.266309859154929654e+04  1.117351560175215042e+02
1.018750000000000000e+02  1.229535211267605519e+04  1.101007635725478764e+02
1.020000000000000000e+02  1.206146666666666715e+04  1.061007487668625657e+02
1.021250000000000000e+02  1.296594936708860769e+04  1.071858941040687512e+02
1.022500000000000000e+02  1.199406250000000000e+04  1.145360461137671706e+02
1.023750000000000000e+02  1.264941176470588289e+04  1.141115826163024991e+02
1.025000000000000000e+02  1.594250000000000000e+04  1.281069750592196499e+02
1.026250000000000000e+02  3.705882352941176123e+03  6.176470588235294201e+01
1.027500000000000000e+02  1.486161764705882342e+04  1.236880109325188783e+02
1.028750000000000000e+02  1.225913043478260806e+04  1.115203972007293629e+02
1.030000000000000000e+02  1.158144927536231990e+04  1.083941712746105139e+02
1.031250000000000000e+02  1.164699999999999818e+04  1.079212675981893739e+02
1.032500000000000000e+02  1.184281690140845058e+04  1.080556183794273863e+02
1.033750000000000000e+02  1.140712328767123290e+04  1.045865067737554597e+02
1.035000000000000000e+02  1.194725000000000000e+04  1.022440401686083646e+02
1.036250000000000000e+02  1.123343283582089680e+04  1.083347698838328910e+02
1.037500000000000000e+02  1.185820895522387946e+04  1.113066643795803117e+02
1.038750000000000000e+02  1.142647058823529551e+04  1.084552592205428994e+02
1.040000000000000000e+02  1.200602941176470449e+04  1.111717046908764104e+02
1.041250000000000000e+02  1.166941176470588289e+04  1.096021430346389991e+02
1.042500000000000000e+02  1.264735294117647209e+04  1.141022958140396213e+02
1.043750000000000000e+02  1.189086956521739194e+04  1.098326044860612143e+02
1.045000000000000000e+02  1.235000000000000000e+04  1.111305538544643383e+02
1.046250000000000000e+02  1.244800000000000000e+04  1.115706054478508236e+02
1.047500000000000000e+02  1.229698630136986321e+04  1.085892752528706495e+02
1.048750000000000000e+02  1.303536585365853716e+04  1.054881573376319466e+02
1.050000000000000000e+02  1.232102941176470449e+04  1.126206580950306062e+02
1.051250000000000000e+02  1.332194029850746301e+04  1.179764598892205782e+02
1.052500000000000000e+02  1.231164179104477626e+04  1.134147668248159704e+02
1.053750000000000000e+02  1.298911764705882342e+04  1.156336911070088718e+02
1.055000000000000000e+02  1.269367647058823604e+04  1.143110663767676130e+02
1.056250000000000000e+02  1.347191176470588289e+04  1.177630861673887210e+02
1.057500000000000000e+02  1.304367647058823604e+04  1.158762875390855385e+02
1.058750000000000000e+02  1.302507246376811599e+04  1.149514751097595990e+02
1.060000000000000000e+02  1.317183098591549242e+04  1.139575019015202599e+02
1.061250000000000000e+02  1.287136986301369870e+04  1.110963971408810806e+02
1.062500000000000000e+02  1.326166666666666788e+04  1.051255862713206994e+02
1.063750000000000000e+02  1.232940298507462649e+04  1.134965453452299897e+02
1.065000000000000000e+02  1.371582089552238904e+04  1.197078198350060063e+02
1.066250000000000000e+02  1.212776119402985205e+04  1.125646271141366128e+02
1.067500000000000000e+02  1.276573529411764684e+04  1.146350648662345861e+02
1.068750000000000000e+02  1.214761194029850776e+04  1.126567124631215222e+02
1.070000000000000000e+02  1.285838235294117658e+04  1.150502936510991674e+02
1.071250000000000000e+02  1.225102941176470449e+04  1.123002840879237141e+02
1.072500000000000000e+02  1.185739130434782601e+04  1.096778808836835424e+02
1.073750000000000000e+02  1.171138888888888869e+04  1.067055412378579149e+02
1.075000000000000000e+02  1.176287671232876710e+04  1.062048530908135433e+02
1.076250000000000000e+02  1.228666666666666606e+04  1.011873949110702711e+02
1.077500000000000000e+02  1.136611940298507579e+04  1.089727035661762358e+02
1.078750000000000000e+02  1.185716417910447854e+04  1.113017608942862040e+02
1.080000000000000000e+02  1.149462686567164201e+04  1.095870049353558926e+02
1.081250000000000000e+02  1.191567164179104475e+04  1.115760242076703719e+02
1.082500000000000000e+02  1.144397058823529551e+04  1.085382787705678851e+02
1.083750000000000000e+02  1.188119402985074521e+04  1.114144864565707138e+02
1.085000000000000000e+02  1.157573529411764684e+04  1.091613397539889831e+02
1.086250000000000000e+02  1.188500000000000000e+04  1.090183470797461638e+02
1.087500000000000000e+02  1.188736111111111131e+04  1.075042168280038624e+02
1.088750000000000000e+02  1.203328767123287616e+04  1.074186622510834894e+02
1.090000000000000000e+02  1.202316455696202684e+04  1.032154879328042369e+02
1.091250000000000000e+02  1.243569444444444343e+04  1.099557114826434230e+02
1.092500000000000000e+02  1.250388059701492421e+04  1.142967884396912410e+02
1.093750000000000000e+02  1.201666666666666606e+04  1.128935316789650898e+02
1.095000000000000000e+02  1.280588235294117658e+04  1.148151817119891831e+02
1.096250000000000000e+02  1.273164179104477626e+04  1.153330624932704609e+02
1.097500000000000000e+02  1.236597014925373151e+04  1.136647276211510729e+02
1.098750000000000000e+02  1.227942028985507204e+04  1.116126466971889357e+02
1.100000000000000000e+02  1.253690140845070346e+04  1.111770000147303108e+02
1.101250000000000000e+02  1.246394366197183081e+04  1.108530340572171013e+02
1.102500000000000000e+02  1.239575342465753420e+04  1.090244876179500295e+02
1.103750000000000000e+02  1.281909090909090992e+04  1.079523923230257196e+02
1.105000000000000000e+02  1.228452054794520518e+04  1.085342215052730523e+02
1.106250000000000000e+02  1.286432835820895525e+04  1.159324935504076990e+02
1.107500000000000000e+02  1.213716417910447854e+04  1.126082558767415378e+02
1.108750000000000000e+02  1.284865671641791050e+04  1.158618561206413773e+02
1.110000000000000000e+02  1.246417910447761096e+04  1.141151903837516812e+02
1.111250000000000000e+02  1.278529411764705947e+04  1.147228494238649716e+02
1.112500000000000000e+02  1.219000000000000000e+04  1.104083330188441892e+02
1.113750000000000000e+02  1.206100000000000000e+04  1.098225841983332742e+02
1.115000000000000000e+02  1.211194444444444343e+04  1.085149830355692302e+02
1.116250000000000000e+02  1.194535211267605519e+04  1.085223834825003877e+02
1.117500000000000000e+02  1.216880000000000109e+04  1.065717911394317667e+02
1.118750000000000000e+02  1.190184210526315655e+04  1.047006351064297434e+02
1.120000000000000000e+02  1.210469696969696997e+04  1.133062882979599806e+02
1.121250000000000000e+02  1.185925373134328402e+04  1.113115676488666139e+02
1.122500000000000000e+02  1.073194029850746301e+04  1.058889745853605859e+02
1.123750000000000000e+02  1.132147058823529551e+04  1.079558012211527114e+02
1.125000000000000000e+02  1.201159420289855007e+04  1.103887461578528786e+02
1.126250000000000000e+02  1.121300000000000000e+04  1.058914538572400517e+02
1.127500000000000000e+02  1.123246376811594200e+04  1.067485508008827111e+02
1.128750000000000000e+02  1.148985915492957793e+04  1.064332192163117412e+02
1.130000000000000000e+02  1.141486111111111131e+04  1.053460091118902824e+02
1.131250000000000000e+02  1.142891891891891828e+04  1.039766296717501604e+02
1.132500000000000000e+02  1.072657894736841990e+04  9.939690018965893614e+01
1.133750000000000000e+02  1.163253731343283471e+04  1.102424473292333289e+02
1.135000000000000000e+02  1.063151515151515196e+04  1.061878025157415664e+02
1.136250000000000000e+02  1.141205882352941262e+04  1.083868424323577528e+02
1.137500000000000000e+02  1.096869565217391209e+04  1.054877350966860377e+02
1.138750000000000000e+02  1.143231884057971001e+04  1.076940324292760920e+02
1.140000000000000000e+02  1.083376811594202991e+04  1.048369173910465975e+02
1.141250000000000000e+02  1.128700000000000000e+04  1.062402936742929001e+02
1.142500000000000000e+02  1.083700000000000000e+04  1.041009125800537873e+02
1.143750000000000000e+02  1.115563380281690115e+04  1.048737917687747512e+02
1.145000000000000000e+02  1.094397260273972461e+04  1.024413017488405302e+02
1.146250000000000000e+02  1.098730769230769147e+04  9.929956867605464765e+01
1.147500000000000000e+02  1.120848484848484804e+04  1.090311284015451889e+02
1.148750000000000000e+02  1.072985074626865571e+04  1.058786655774419501e+02
1.150000000000000000e+02  1.119391304347826190e+04  1.065652085218097227e+02
1.151250000000000000e+02  1.096869565217391209e+04  1.054877350966860377e+02
1.152500000000000000e+02  1.103838235294117658e+04  1.065975640314517108e+02
1.153750000000000000e+02  1.107318840579710013e+04  1.059890060203673556e+02
1.155000000000000000e+02  1.113101449275362393e+04  1.062653920303936133e+02
1.156250000000000000e+02  1.083100000000000000e+04  1.040720903989153072e+02
1.157500000000000000e+02  1.107577464788732505e+04  1.044977407500312552e+02
1.158750000000000000e+02  1.106000000000000000e+04  1.022847112825869260e+02
1.160000000000000000e+02  1.087909090909090992e+04  9.944889463753781911e+01
1.161250000000000000e+02  1.132119402985074521e+04  1.087571292629393866e+02
1.162500000000000000e+02  1.071411764705882342e+04  1.050201826047034785e+02
1.163750000000000000e+02  1.127514705882352791e+04  1.077347159978707509e+02
1.165000000000000000e+02  1.077588235294117658e+04  1.053224575729419286e+02
1.166250000000000000e+02  1.120000000000000000e+04  1.065941782677633540e+02
1.167500000000000000e+02  1.084797101449275397e+04  1.049056146529692910e+02
1.168750000000000000e+02  1.100600000000000000e+04  1.049094847952271721e+02
1.170000000000000000e+02  1.205420289855072406e+04  1.105843636834943595e+02
1.171250000000000000e+02  1.235647887323943723e+04  1.103741090996064855e+02
1.172500000000000000e+02  9.490833333333333940e+03  9.605831080168999847e+01
1.173750000000000000e+02  1.217025316455696156e+04  1.038449258597772058e+02
1.175000000000000000e+02  6.907352941176470267e+03  8.432384230229808963e+01
1.176250000000000000e+02  9.404029850746268494e+03  9.912167176865268914e+01
1.177500000000000000e+02  1.227231884057971001e+04  1.115803680488706959e+02
1.178750000000000000e+02  1.092514705882352791e+04  1.060493984589012513e+02
1.180000000000000000e+02  1.098176470588235316e+04  1.063238345126205928e+02
1.181250000000000000e+02  1.094333333333333394e+04  1.053657077380955087e+02
1.182500000000000000e+02  1.120202898550724603e+04  1.066038331002878010e+02
1.183750000000000000e+02  1.104900000000000000e+04  1.051142235855833178e+02
1.185000000000000000e+02  1.094000000000000000e+04  1.045944549199430611e+02
1.186250000000000000e+02  1.092479452054794456e+04  1.023515039565577638e+02
1.187500000000000000e+02  1.094887500000000000e+04  9.787883134263506690e+01
1.188750000000000000e+02  1.153850746268656621e+04  1.097959792094776788e+02
1.190000000000000000e+02  1.096941176470588289e+04  1.062640180046442140e+02
1.191250000000000000e+02  1.144088235294117658e+04  1.085236328765931120e+02
1.192500000000000000e+02  1.082735294117647209e+04  1.055736922640763424e+02
1.193750000000000000e+02  1.167376811594202991e+04  1.088253332689618134e+02
1.195000000000000000e+02  1.114441176470588289e+04  1.071083030456317147e+02
1.196250000000000000e+02  1.131529411764705947e+04  1.079263493583153917e+02
1.197500000000000000e+02  1.116200000000000000e+04  1.056503667764575312e+02
1.198750000000000000e+02  1.159633802816901516e+04  1.069252511035018074e+02
1.200000000000000000e+02  1.128054794520547875e+04  1.040046334692534202e+02
1.201250000000000000e+02  1.158320512820512886e+04  1.019567755934585165e+02
1.202500000000000000e+02  1.174200000000000000e+04  1.083605094118701544e+02
1.203750000000000000e+02  1.115925373134328402e+04  1.079764872963837377e+02
1.205000000000000000e+02  1.184955882352941262e+04  1.104448969374120537e+02
1.206250000000000000e+02  1.165191176470588289e+04  1.095199299301415437e+02
1.207500000000000000e+02  1.199058823529411711e+04  1.111001916972050481e+02
1.208750000000000000e+02  1.198826086956521794e+04  1.102814752382209349e+02
1.210000000000000000e+02  1.265455882352941262e+04  1.141347963160394272e+02
1.211250000000000000e+02  1.203802816901408369e+04  1.089425466771029676e+02
1.212500000000000000e+02  1.261183098591549242e+04  1.115087420948629244e+02
1.213750000000000000e+02  1.233750000000000000e+04  1.095207362405251104e+02
1.215000000000000000e+02  1.248909090909090992e+04  1.065538315043830835e+02
1.216250000000000000e+02  1.318859154929577380e+04  1.140299817536700004e+02
1.217500000000000000e+02  1.263088235294117658e+04  1.140279741674540190e+02
1.218750000000000000e+02  1.325611940298507579e+04  1.176846506057326138e+02
1.220000000000000000e+02  1.296441176470588289e+04  1.155236685406050583e+02
1.221250000000000000e+02  1.388264705882352791e+04  1.195448041849266474e+02
1.222500000000000000e+02  1.339779411764705947e+04  1.174386941591788514e+02
1.223750000000000000e+02  1.376239436619718253e+04  1.164841526810759120e+02
1.225000000000000000e+02  1.361144927536231990e+04  1.175104959404251161e+02
1.226250000000000000e+02  1.387380281690140873e+04  1.169546798696996319e+02
1.227500000000000000e+02  1.385904109589041036e+04  1.152800566525395425e+02
1.228750000000000000e+02  1.394797297297297155e+04  1.148652623204570347e+02
1.230000000000000000e+02  1.461864864864864830e+04  1.175944361966048461e+02
1.231250000000000000e+02  1.390074626865671598e+04  1.205121062108396188e+02
1.232500000000000000e+02  1.457671641791044749e+04  1.234074763243388588e+02
1.233750000000000000e+02  1.447867647058823604e+04  1.220840689696807715e+02
1.235000000000000000e+02  1.482558823529411711e+04  1.235379898982369156e+02
1.236250000000000000e+02  1.432400000000000000e+04  1.196829144030174490e+02
1.237500000000000000e+02  1.463405797101449207e+04  1.218447609365944828e+02
1.238750000000000000e+02  1.437637681159420390e+04  1.207672559045652747e+02
1.240000000000000000e+02  1.474861111111111131e+04  1.197452607376834948e+02
1.241250000000000000e+02  1.497408450704225288e+04  1.215038349532701574e+02
1.242500000000000000e+02  1.460986301369863031e+04  1.183615549254425332e+02
1.243750000000000000e+02  1.475693333333333248e+04  1.173590123415231261e+02
1.245000000000000000e+02  1.370850746268656621e+04  1.196759007890583462e+02
1.246250000000000000e+02  1.513338235294117658e+04  1.248137886369532339e+02
1.247500000000000000e+02  1.425323529411764684e+04  1.211298811065453407e+02
1.248750000000000000e+02  1.485400000000000000e+04  1.218769871632868984e+02
1.250000000000000000e+02  1.425529411764705947e+04  1.211386291570465374e+02
1.251250000000000000e+02  1.437563380281690115e+04  1.190510818400415474e+02
1.252500000000000000e+02  1.412681159420289987e+04  1.197144435484661216e+02
1.253750000000000000e+02  1.426100000000000000e+04  1.194194289050152804e+02
1.255000000000000000e+02  1.405718309859154942e+04  1.177250806083613952e+02
1.256250000000000000e+02  1.382068493150684844e+04  1.151204220725291378e+02
1.257500000000000000e+02  1.443866666666666788e+04  1.160865577441629881e+02
1.258750000000000000e+02  1.350059701492537351e+04  1.187648995237113638e+02
1.260000000000000000e+02  1.362768115942028999e+04  1.175805416934244931e+02
1.261250000000000000e+02  1.303441176470588289e+04  1.158351277316557173e+02
1.262500000000000000e+02  1.345400000000000000e+04  1.159913789899921852e+02
1.263750000000000000e+02  1.300147058823529551e+04  1.156886631524753994e+02
1.265000000000000000e+02  1.308700000000000000e+04  1.143984265626061898e+02
1.266250000000000000e+02  1.287492753623188401e+04  1.142870101495830397e+02
1.267500000000000000e+02  1.268200000000000000e+04  1.126143862923383381e+02
1.268750000000000000e+02  1.264535211267605519e+04  1.116568339233801481e+02
1.270000000000000000e+02  1.243472222222222263e+04  1.099514132315039348e+02
1.271250000000000000e+02  1.229513157894736833e+04  1.064164615855972329e+02
1.272500000000000000e+02  1.190800000000000182e+04  1.091237829256299108e+02
1.273750000000000000e+02  1.230432835820895525e+04  1.133810761721269671e+02
1.275000000000000000e+02  1.183823529411764684e+04  1.103921133284489144e+02
1.276250000000000000e+02  1.195000000000000000e+04  1.093160555453772247e+02
1.277500000000000000e+02  1.166941176470588289e+04  1.096021430346389991e+02
1.278750000000000000e+02  1.188173913043478206e+04  1.097904287643835062e+02
1.280000000000000000e+02  1.155608695652173810e+04  1.082754195449306422e+02
1.281250000000000000e+02  1.167126760563380230e+04  1.072701428863140194e+02
1.282500000000000000e+02  1.138400000000000000e+04  1.066958293467931185e+02
1.283750000000000000e+02  1.156342465753424585e+04  1.053005955587756404e+02
1.285000000000000000e+02  1.170381578947368325e+04  1.038259617456538422e+02
1.286250000000000000e+02  1.115536231884057997e+04  1.063815502636849999e+02
1.287500000000000000e+02  1.199985294117647209e+04  1.111431050150549993e+02
1.288750000000000000e+02  1.108058823529411711e+04  1.068011605240006503e+02
1.290000000000000000e+02  1.155000000000000000e+04  1.082468997447401478e+02
1.291250000000000000e+02  1.123397058823529551e+04  1.075378142231339638e+02
1.292500000000000000e+02  1.154700000000000000e+04  1.074569681314338965e+02
1.293750000000000000e+02  1.115637681159420390e+04  1.063863874377360901e+02
1.295000000000000000e+02  1.139376811594202991e+04  1.075123025057417010e+02
1.296250000000000000e+02  1.126125000000000000e+04  1.046347815021372298e+02
1.297500000000000000e+02  1.121652777777777737e+04  1.044268048047453874e+02
1.298750000000000000e+02  1.162179487179487114e+04  1.021264701758811526e+02
1.300000000000000000e+02  1.091382352941176396e+04  1.059944259812767200e+02
1.301250000000000000e+02  1.155926470588235316e+04  1.090836517521520079e+02
1.302500000000000000e+02  1.114750000000000000e+04  1.071231424439127693e+02
1.303750000000000000e+02  1.140188405797101586e+04  1.075505869554571348e+02
1.305000000000000000e+02  1.118478260869565383e+04  1.065217391304347956e+02
1.306250000000000000e+02  1.147279411764705947e+04  1.086748786001361253e+02
1.307500000000000000e+02  1.104800000000000000e+04  1.051094667477672999e+02
1.308750000000000000e+02  1.111900000000000000e+04  1.054466689848474914e+02
1.310000000000000000e+02  1.093361111111111131e+04  1.031014048951711715e+02
1.311250000000000000e+02  1.110239436619718253e+04  1.046232412734407831e+02
1.312500000000000000e+02  1.089075949367088469e+04  9.823461740996940250e+01
1.313750000000000000e+02  1.016671641791044749e+04  1.030628086468396987e+02
1.315000000000000000e+02  1.120308823529411711e+04  1.073899009704815057e+02
1.316250000000000000e+02  1.036617647058823604e+04  1.033008422707231801e+02
1.317500000000000000e+02  1.065866666666666788e+04  1.115128293565862094e+02
1.318750000000000000e+02  1.093555555555555657e+04  1.304257037455840589e+02
1.320000000000000000e+02  2.844800000000000182e+03  8.924931372285166731e+01
