# DMC at SINQ, PSI: Sample name = Unknown, wavelength = 2.450 AA, T = 0.0 K
# Filelist='dmc:2021:574-575'
#   0.000   0.125 132.000     280., sample="Unknown"
0.000000000000000000e+00  1.683500000000000000e+05  3.432855953866984237e+03
1.250000000000000000e-01  1.749650000000000000e+05  2.474626234403894614e+03
2.500000000000000000e-01  1.740340000000000000e+05  1.560921522691003020e+03
3.750000000000000000e-01  1.774220000000000000e+05  1.576041877616200964e+03
5.000000000000000000e-01  1.734055555555555620e+05  1.161339690419306180e+03
6.250000000000000000e-01  1.762288888888889051e+05  1.170755796826335882e+03
7.500000000000000000e-01  1.752961538461538439e+05  9.715463791625726344e+02
8.750000000000000000e-01  1.747200000000000000e+05  9.346657156438338916e+02
1.000000000000000000e+00  1.764350000000000000e+05  9.392417154279295346e+02
1.125000000000000000e+00  1.723785000000000000e+05  7.767398213044057229e+02
1.250000000000000000e+00  1.735961111111110949e+05  8.216422504072688753e+02
1.375000000000000000e+00  1.739966666666666570e+05  7.123835187437858849e+02
1.500000000000000000e+00  1.747033333333333139e+05  7.631149614864358455e+02
1.625000000000000000e+00  1.712485185185185110e+05  6.663164718086793528e+02
1.750000000000000000e+00  1.731070833333333430e+05  7.105601028218670763e+02
1.875000000000000000e+00  1.697974193548386975e+05  6.192039466730184358e+02
2.000000000000000000e+00  1.744000000000000000e+05  6.603029607687670932e+02
2.125000000000000000e+00  1.703460000000000000e+05  5.836882729676860890e+02
2.250000000000000000e+00  1.686720000000000000e+05  5.808132229899729282e+02
2.375000000000000000e+00  1.698729729729729588e+05  5.669050186928477615e+02
2.500000000000000000e+00  1.703397500000000000e+05  5.459803682368075215e+02
2.625000000000000000e+00  1.681657894736842136e+05  5.565780141836148687e+02
2.750000000000000000e+00  1.680843181818181765e+05  5.171139814728574038e+02
2.875000000000000000e+00  1.676333333333333139e+05  5.285725010714130576e+02
3.000000000000000000e+00  1.667027659574468271e+05  4.982777491076356000e+02
3.125000000000000000e+00  1.659262500000000000e+05  4.919103386289010018e+02
3.250000000000000000e+00  1.649520833333333430e+05  4.904641898526107866e+02
3.375000000000000000e+00  1.659242307692307804e+05  4.726092904504928356e+02
3.500000000000000000e+00  1.629675000000000000e+05  4.513417496753430100e+02
3.625000000000000000e+00  1.640235087719298317e+05  4.488121869931764536e+02
3.750000000000000000e+00  1.632707017543859547e+05  4.477810618455089866e+02
3.875000000000000000e+00  1.624562295081967313e+05  4.317698245626351081e+02
4.000000000000000000e+00  1.624840000000000000e+05  4.353902464073657370e+02
4.125000000000000000e+00  1.599325000000000000e+05  4.182417624711812891e+02
4.250000000000000000e+00  1.607823437500000000e+05  4.193515094482938821e+02
4.375000000000000000e+00  1.590529230769230926e+05  4.138692587202019695e+02
4.500000000000000000e+00  1.598615277777777810e+05  3.942346126153189516e+02
4.625000000000000000e+00  1.584079411764706019e+05  4.038155498119112394e+02
4.750000000000000000e+00  1.579918181818181765e+05  3.789840704038030026e+02
4.875000000000000000e+00  1.567852112676056277e+05  3.931627765384025111e+02
5.000000000000000000e+00  1.561286746987951919e+05  3.628702052946068761e+02
5.125000000000000000e+00  1.553060526315789321e+05  3.782129670918942566e+02
5.250000000000000000e+00  1.547520731707316882e+05  3.634631044775773034e+02
5.375000000000000000e+00  1.536347435897435935e+05  3.713183728160990427e+02
5.500000000000000000e+00  1.541605882352941262e+05  3.563085440271013340e+02
5.625000000000000000e+00  1.536064444444444380e+05  3.456467546677470182e+02
5.750000000000000000e+00  1.516574418604651291e+05  3.513432848937252970e+02
5.875000000000000000e+00  1.520159139784946165e+05  3.382611127722497599e+02
6.000000000000000000e+00  1.520070114942528598e+05  3.497205913395294488e+02
6.125000000000000000e+00  1.507504123711340362e+05  3.298317106968805774e+02
6.250000000000000000e+00  1.495967021276595769e+05  3.337690810377254707e+02
6.375000000000000000e+00  1.500065346534653218e+05  3.224359238784540480e+02
6.500000000000000000e+00  1.486150000000000000e+05  3.258121720080013120e+02
6.625000000000000000e+00  1.479640000000000000e+05  3.140743011878982998e+02
6.750000000000000000e+00  1.468346078431372589e+05  3.174410945668504382e+02
6.875000000000000000e+00  1.469608256880733825e+05  3.072108590362194604e+02
7.000000000000000000e+00  1.421673584905660246e+05  3.064051315881986852e+02
7.125000000000000000e+00  1.430440366972477059e+05  3.030893314405752221e+02
7.250000000000000000e+00  1.413625742574257310e+05  3.130080851456280016e+02
7.375000000000000000e+00  1.408108333333333139e+05  3.204287221399202963e+02
7.500000000000000000e+00  1.422514130434782419e+05  3.289905329852986142e+02
7.625000000000000000e+00  1.401159139784946165e+05  3.247515837784457631e+02
7.750000000000000000e+00  1.399268181818181765e+05  3.336246746775769338e+02
7.875000000000000000e+00  1.397371111111111240e+05  3.296732014481710848e+02
8.000000000000000000e+00  1.382084883720930375e+05  3.354031622288301264e+02
8.125000000000000000e+00  1.388051724137931014e+05  3.341890522320974810e+02
8.250000000000000000e+00  1.370366666666666861e+05  3.320532893575669391e+02
8.375000000000000000e+00  1.383628750000000000e+05  3.479475759723007400e+02
8.500000000000000000e+00  1.367940000000000000e+05  3.356395125025377411e+02
8.625000000000000000e+00  1.362865000000000000e+05  3.453269284315950927e+02
8.750000000000000000e+00  1.344261445783132513e+05  3.367067674323194524e+02
8.875000000000000000e+00  1.363409090909090883e+05  3.520600531042048829e+02
9.000000000000000000e+00  1.330162195121951227e+05  3.369724488602863062e+02
9.125000000000000000e+00  1.347670930232558167e+05  3.312010650406267018e+02
9.250000000000000000e+00  1.322898684210526408e+05  3.490643657557201891e+02
9.375000000000000000e+00  1.327167816091954010e+05  3.267776268147942460e+02
9.500000000000000000e+00  1.328156338028169121e+05  3.618632214983995254e+02
9.625000000000000000e+00  1.311416666666666570e+05  3.305823985366163242e+02
9.750000000000000000e+00  1.321155405405405327e+05  3.535168453847448404e+02
9.875000000000000000e+00  1.299001234567901120e+05  3.350512885370125673e+02
1.000000000000000000e+01  1.305105128205128276e+05  3.422350350240257626e+02
1.012500000000000000e+01  1.288709210526315874e+05  3.445241660167383770e+02
1.025000000000000000e+01  1.299454545454545441e+05  3.437036971069102265e+02
1.037500000000000000e+01  1.285405333333333256e+05  3.463685384737540289e+02
1.050000000000000000e+01  1.285379268292682973e+05  3.312514128464812870e+02
1.062500000000000000e+01  1.269454666666666599e+05  3.442127765722178765e+02
1.075000000000000000e+01  1.281806329113924003e+05  3.370130205161757999e+02
1.087500000000000000e+01  1.264321333333333314e+05  3.435161196282416540e+02
1.100000000000000000e+01  1.261218181818181765e+05  3.386092118462039480e+02
1.112500000000000000e+01  1.257430263157894660e+05  3.403174184358754246e+02
1.125000000000000000e+01  1.249140540540540533e+05  3.437469171121468889e+02
1.137500000000000000e+01  1.255468918918918935e+05  3.446165599782592039e+02
1.150000000000000000e+01  1.224253947368421068e+05  3.357979034992026186e+02
1.162500000000000000e+01  1.240031081081081065e+05  3.424912223686349080e+02
1.175000000000000000e+01  1.217244000000000087e+05  3.370599946597044436e+02
1.187500000000000000e+01  1.230025641025640944e+05  3.322452655829742980e+02
1.200000000000000000e+01  1.216273972602739668e+05  3.415098989363201554e+02
1.212500000000000000e+01  1.206555000000000000e+05  3.249208557479805677e+02
1.225000000000000000e+01  1.206170000000000000e+05  3.472995824932705204e+02
1.237500000000000000e+01  1.206029113924050616e+05  3.268995858187345220e+02
1.250000000000000000e+01  1.196630000000000000e+05  3.459234019259176875e+02
1.262500000000000000e+01  1.185846666666666570e+05  3.326845686565912956e+02
1.275000000000000000e+01  1.192245833333333285e+05  3.404596736059233422e+02
1.287500000000000000e+01  1.171954545454545441e+05  3.264066823979704850e+02
1.300000000000000000e+01  1.183670000000000000e+05  3.440450551889970257e+02
1.312500000000000000e+01  1.165220000000000000e+05  3.297785115295820333e+02
1.325000000000000000e+01  1.166228000000000029e+05  3.299211218862270130e+02
1.337500000000000000e+01  1.161735135135135206e+05  3.315024345829222625e+02
1.350000000000000000e+01  1.156045454545454413e+05  3.241836536938808422e+02
1.362500000000000000e+01  1.157881159420289914e+05  3.427334307867704410e+02
1.375000000000000000e+01  1.131208974358974374e+05  3.186200780069246434e+02
1.387500000000000000e+01  1.148660000000000000e+05  3.389188693478130858e+02
1.400000000000000000e+01  1.142570270270270412e+05  3.287567056533640084e+02
1.412500000000000000e+01  1.161595774647887301e+05  3.384132489693048456e+02
1.425000000000000000e+01  1.131292105263157864e+05  3.227970834188436697e+02
1.437500000000000000e+01  1.166118840579710086e+05  3.439504489939779432e+02
1.450000000000000000e+01  1.346355405405405327e+05  3.568724474578632453e+02
1.462500000000000000e+01  1.032398684210526408e+05  3.083656149655386116e+02
1.475000000000000000e+01  1.130210666666666657e+05  3.247865897614753408e+02
1.487500000000000000e+01  1.143128767123287689e+05  3.310816927261267892e+02
1.500000000000000000e+01  1.156054929577464791e+05  3.376051637313325955e+02
1.512500000000000000e+01  1.128390540540540533e+05  3.267103391795366178e+02
1.525000000000000000e+01  1.156000000000000000e+05  3.400000000000000000e+02
1.537500000000000000e+01  1.114324324324324261e+05  3.246676111138204988e+02
1.550000000000000000e+01  1.142297058823529369e+05  3.429131130682914659e+02
1.562500000000000000e+01  1.124430263157894660e+05  3.218166330239298532e+02
1.575000000000000000e+01  1.135338235294117767e+05  3.418670116188720840e+02
1.587500000000000000e+01  1.103340000000000000e+05  3.209024773977290579e+02
1.600000000000000000e+01  1.107825675675675739e+05  3.237195092545757689e+02
1.612500000000000000e+01  1.099994736842105340e+05  3.183006514431619962e+02
1.625000000000000000e+01  1.121922535211267677e+05  3.325839456984087974e+02
1.637500000000000000e+01  1.117650684931506839e+05  3.273713235556572840e+02
1.650000000000000000e+01  1.097235211267605628e+05  3.289044229267065589e+02
1.662500000000000000e+01  1.105913698630136932e+05  3.256478451436850037e+02
1.675000000000000000e+01  1.098063380281690188e+05  3.290285244274836032e+02
1.687500000000000000e+01  1.104648611111111095e+05  3.277138885474851691e+02
1.700000000000000000e+01  1.076688732394366234e+05  3.258103900063107403e+02
1.712500000000000000e+01  1.086930000000000000e+05  3.296862144524699261e+02
1.725000000000000000e+01  1.066313888888888905e+05  3.219773375009451684e+02
1.737500000000000000e+01  1.076436986301369907e+05  3.212786718532722716e+02
1.750000000000000000e+01  1.072306666666666570e+05  3.163573225888023330e+02
1.762500000000000000e+01  1.060450000000000000e+05  3.256455127895976602e+02
1.775000000000000000e+01  1.051026666666666715e+05  3.132025258873596840e+02
1.787500000000000000e+01  1.052130000000000000e+05  3.243655345439771054e+02
1.800000000000000000e+01  1.055935616438356228e+05  3.182044943215254875e+02
1.812500000000000000e+01  1.036650000000000000e+05  3.219704955426816468e+02
1.825000000000000000e+01  1.054851388888888905e+05  3.202420898975887553e+02
1.837500000000000000e+01  1.021040000000000000e+05  3.195371652875452355e+02
1.850000000000000000e+01  1.045200000000000000e+05  3.232955304361630056e+02
1.862500000000000000e+01  1.017277464788732323e+05  3.166937974087887824e+02
1.875000000000000000e+01  1.033590909090908972e+05  3.065335379976477270e+02
1.887500000000000000e+01  1.016930000000000000e+05  3.188933991163818291e+02
1.900000000000000000e+01  1.013628000000000029e+05  3.075797132452008782e+02
1.912500000000000000e+01  1.016140000000000000e+05  3.187695092068876193e+02
1.925000000000000000e+01  9.996777777777778101e+04  3.117545429688690319e+02
1.937500000000000000e+01  1.008470000000000000e+05  3.175641667442974949e+02
1.950000000000000000e+01  9.991780821917807043e+04  3.095344842218707413e+02
1.962500000000000000e+01  1.003444927536231990e+05  3.190591806617469501e+02
1.975000000000000000e+01  9.798521126760562765e+04  3.108136706605266681e+02
1.987500000000000000e+01  9.949600000000000000e+04  3.154298654217764692e+02
2.000000000000000000e+01  9.791300000000000000e+04  3.129105303437390262e+02
2.012500000000000000e+01  9.871959999999999127e+04  3.035429019649994871e+02
2.025000000000000000e+01  9.657042253521126986e+04  3.085616238921176659e+02
2.037500000000000000e+01  9.744466666666665697e+04  3.015764505984437278e+02
2.050000000000000000e+01  9.687300000000000000e+04  3.112442770558199072e+02
2.062500000000000000e+01  9.549774647887323226e+04  3.068431322289488890e+02
2.075000000000000000e+01  9.606169014084507944e+04  3.077478003001249363e+02
2.087500000000000000e+01  9.565111111111110949e+04  3.049493987573497407e+02
2.100000000000000000e+01  9.613637681159420754e+04  3.122973865323734231e+02
2.112500000000000000e+01  9.464394366197183263e+04  3.054683786760229509e+02
2.125000000000000000e+01  9.474347826086956775e+04  3.100267281198643445e+02
2.137500000000000000e+01  9.269873239436619042e+04  3.023129445543967790e+02
2.150000000000000000e+01  9.420638888888889051e+04  3.026376459614474470e+02
2.162500000000000000e+01  9.346289473684210679e+04  2.934011676056429678e+02
2.175000000000000000e+01  9.252681159420289623e+04  3.063784912133631906e+02
2.187500000000000000e+01  9.196013513513513317e+04  2.949395141715033333e+02
2.200000000000000000e+01  9.173347826086956775e+04  3.050622050669379064e+02
2.212500000000000000e+01  9.156486111111110949e+04  2.983645299745155626e+02
2.225000000000000000e+01  9.123700000000000000e+04  3.020546308203203125e+02
2.237500000000000000e+01  9.227873239436619042e+04  3.016273063535652454e+02
2.250000000000000000e+01  8.907652173913043225e+04  3.006118524315137961e+02
2.262500000000000000e+01  9.046661971830987022e+04  2.986510371249335662e+02
2.275000000000000000e+01  8.963550724637680105e+04  3.015535981691945722e+02
2.287500000000000000e+01  9.121095890410958964e+04  2.957407028677449716e+02
2.300000000000000000e+01  8.838375000000000000e+04  2.931358828825521528e+02
2.312500000000000000e+01  8.945041095890410361e+04  2.928726116811228053e+02
2.325000000000000000e+01  8.980708333333332848e+04  2.954867884180773672e+02
2.337500000000000000e+01  8.918394366197183263e+04  2.965262750236627198e+02
2.350000000000000000e+01  8.828900000000000000e+04  2.971346496119225549e+02
2.362500000000000000e+01  8.822400000000000000e+04  2.970252514517915756e+02
2.375000000000000000e+01  8.762816901408450212e+04  2.939285107819686118e+02
2.387500000000000000e+01  8.582720588235293690e+04  2.972398618407834192e+02
2.400000000000000000e+01  8.785097222222221899e+04  2.922510349652702644e+02
2.412500000000000000e+01  8.570100000000000000e+04  2.927473313285707945e+02
2.425000000000000000e+01  8.818173913043476932e+04  2.990982035213793324e+02
2.437500000000000000e+01  8.533280000000000291e+04  2.822125912617412951e+02
2.450000000000000000e+01  8.650369863013699069e+04  2.880082500746988785e+02
2.462500000000000000e+01  8.595000000000000000e+04  2.931723042853809602e+02
2.475000000000000000e+01  8.432000000000000000e+04  2.903790626061045259e+02
2.487500000000000000e+01  8.576380281690139964e+04  2.907849066443379229e+02
2.500000000000000000e+01  8.394971830985914858e+04  2.876931141183756608e+02
2.512500000000000000e+01  8.518492753623187309e+04  2.939719233250407910e+02
2.525000000000000000e+01  8.319746478873239539e+04  2.864012386670453338e+02
2.537500000000000000e+01  8.559500000000000000e+04  2.925662318176860026e+02
2.550000000000000000e+01  8.295100000000000000e+04  2.880121525213823475e+02
2.562500000000000000e+01  8.366338235294117476e+04  2.934690274444717488e+02
2.575000000000000000e+01  8.208013333333333139e+04  2.767817270782962282e+02
2.587500000000000000e+01  8.321486486486486683e+04  2.805650799036804983e+02
2.600000000000000000e+01  8.254927536231883278e+04  2.893883924277504320e+02
2.612500000000000000e+01  8.215958333333332848e+04  2.826258528252240012e+02
2.625000000000000000e+01  8.226014492753623927e+04  2.888811536618108562e+02
2.637500000000000000e+01  8.179943661971831170e+04  2.839847388128374632e+02
2.650000000000000000e+01  8.191676056338028866e+04  2.841883237790510179e+02
2.662500000000000000e+01  8.050000000000000000e+04  2.857738033247041471e+02
2.675000000000000000e+01  8.198014492753623927e+04  2.883890826123005127e+02
2.687500000000000000e+01  8.081700000000000000e+04  2.842833093939916012e+02
2.700000000000000000e+01  8.135300000000000000e+04  2.852244730032821280e+02
2.712500000000000000e+01  8.027108108108107990e+04  2.755578046895913644e+02
2.725000000000000000e+01  8.048930555555554747e+04  2.797382553608742342e+02
2.737500000000000000e+01  8.049337837837837287e+04  2.759390964552143828e+02
2.750000000000000000e+01  7.953671641791045840e+04  2.882673445417641460e+02
2.762500000000000000e+01  8.005958333333332848e+04  2.789905124166743349e+02
2.775000000000000000e+01  7.926267605633802305e+04  2.795465977922727348e+02
2.787500000000000000e+01  7.980913043478260806e+04  2.845448725580112068e+02
2.800000000000000000e+01  7.955500000000000000e+04  2.820549591834896432e+02
2.812500000000000000e+01  8.229117647058822331e+04  2.910524096967957348e+02
2.825000000000000000e+01  8.312700000000000000e+04  2.883175332857854301e+02
2.837500000000000000e+01  8.838400000000000000e+04  2.972944668169927240e+02
2.850000000000000000e+01  9.212662162162162713e+04  2.952063756707654534e+02
2.862500000000000000e+01  9.847541666666667152e+04  3.094187913264576082e+02
2.875000000000000000e+01  1.027629166666666715e+05  3.160828866036624163e+02
2.887500000000000000e+01  1.044950000000000000e+05  3.232568638095717120e+02
2.900000000000000000e+01  1.052475362318840635e+05  3.267611709550881756e+02
2.912500000000000000e+01  1.198163380281690188e+05  3.436986819460241236e+02
2.925000000000000000e+01  8.914154929577464645e+04  2.964557884693110736e+02
2.937500000000000000e+01  8.758441176470588834e+04  3.002672540844781111e+02
2.950000000000000000e+01  8.516400000000000000e+04  2.918287168871494259e+02
2.962500000000000000e+01  7.999900000000000000e+04  2.828409447021417122e+02
2.975000000000000000e+01  8.176405797101449571e+04  2.880087573641129666e+02
2.987500000000000000e+01  7.621770270270270703e+04  2.685103850523011033e+02
3.000000000000000000e+01  7.574291666666667152e+04  2.713649696612649791e+02
3.012500000000000000e+01  7.775152777777778101e+04  2.749395626629313369e+02
3.025000000000000000e+01  7.723300000000000000e+04  2.779082582436153643e+02
3.037500000000000000e+01  7.669000000000000000e+04  2.769295939404093474e+02
3.050000000000000000e+01  7.503700000000000000e+04  2.739288228719278209e+02
3.062500000000000000e+01  7.624800000000000000e+04  2.761304039760924525e+02
3.075000000000000000e+01  7.485000000000000000e+04  2.735872804060890644e+02
3.087500000000000000e+01  7.598652173913043225e+04  2.776468542544263869e+02
3.100000000000000000e+01  7.389159420289855916e+04  2.737927808991789220e+02
3.112500000000000000e+01  7.608289855072463979e+04  2.778228738861477041e+02
3.125000000000000000e+01  7.391616438356164144e+04  2.662301894835676990e+02
3.137500000000000000e+01  7.534932432432433416e+04  2.669763807424934612e+02
3.150000000000000000e+01  7.398507042253520922e+04  2.700796682039345455e+02
3.162500000000000000e+01  7.333200000000000000e+04  2.707988183135221902e+02
3.175000000000000000e+01  7.467736111111110949e+04  2.694494200571525084e+02
3.187500000000000000e+01  7.365521739130433707e+04  2.733545029993449589e+02
3.200000000000000000e+01  7.427304347826086450e+04  2.744985690276648143e+02
3.212500000000000000e+01  7.314605633802816737e+04  2.685439073828005121e+02
3.225000000000000000e+01  7.436716417910446762e+04  2.787418827554436120e+02
3.237500000000000000e+01  7.396400000000000000e+04  2.719632328091427667e+02
3.250000000000000000e+01  7.590739130434782419e+04  2.775022494047582882e+02
3.262500000000000000e+01  7.417256756756757386e+04  2.648834452942317625e+02
3.275000000000000000e+01  7.696253521126760461e+04  2.754606248488063329e+02
3.287500000000000000e+01  7.664902777777778101e+04  2.729833110600059172e+02
3.300000000000000000e+01  7.636408450704225106e+04  2.743875617097604049e+02
3.312500000000000000e+01  7.691600000000000000e+04  2.773373397146514776e+02
3.325000000000000000e+01  7.575300000000000000e+04  2.752326288796442668e+02
3.337500000000000000e+01  7.471000000000000000e+04  2.733313008054511215e+02
3.350000000000000000e+01  7.195391304347825644e+04  2.701790579919949096e+02
3.362500000000000000e+01  7.146200000000000000e+04  2.673237737276652979e+02
3.375000000000000000e+01  7.135573529411765048e+04  2.710247837209790305e+02
3.387500000000000000e+01  7.116768115942028817e+04  2.686988962173037976e+02
3.400000000000000000e+01  6.918430555555554747e+04  2.593501866012890673e+02
3.412500000000000000e+01  7.032666666666665697e+04  2.561995749844683701e+02
3.425000000000000000e+01  6.962260869565217581e+04  2.657661227660175314e+02
3.437500000000000000e+01  6.918366197183099575e+04  2.611689954753049392e+02
3.450000000000000000e+01  6.901704225352112553e+04  2.608543103647434691e+02
3.462500000000000000e+01  6.907072463768115267e+04  2.647106904385052530e+02
3.475000000000000000e+01  6.819200000000000000e+04  2.611359799031914122e+02
3.487500000000000000e+01  6.835253521126760461e+04  2.595954996677111239e+02
3.500000000000000000e+01  6.944000000000000000e+04  2.693496867110546305e+02
3.512500000000000000e+01  6.804507246376812691e+04  2.627379548794911557e+02
3.525000000000000000e+01  6.819521739130435162e+04  2.630276675090213416e+02
3.537500000000000000e+01  6.675140845070422802e+04  2.565370300137973345e+02
3.550000000000000000e+01  6.789716216216215980e+04  2.534305531867295826e+02
3.562500000000000000e+01  6.743175675675676030e+04  2.525604817307474548e+02
3.575000000000000000e+01  6.669275362318840052e+04  2.601140428156489861e+02
3.587500000000000000e+01  6.719704225352112553e+04  2.573919288530291283e+02
3.600000000000000000e+01  6.619100000000000000e+04  2.572761162642191266e+02
3.612500000000000000e+01  6.628400000000000000e+04  2.574567924914780974e+02
3.625000000000000000e+01  6.548191176470588834e+04  2.596302184762412253e+02
3.637500000000000000e+01  6.701231884057971183e+04  2.607364797400907719e+02
3.650000000000000000e+01  6.464449275362318440e+04  2.560885968960692480e+02
3.662500000000000000e+01  6.583602941176469903e+04  2.603312951183416430e+02
3.675000000000000000e+01  6.418400000000000000e+04  2.533456137374397201e+02
3.687500000000000000e+01  6.555131578947367962e+04  2.457157136028490356e+02
3.700000000000000000e+01  6.516416666666666424e+04  2.517023061593316413e+02
3.712500000000000000e+01  6.532676056338028138e+04  2.537846830369747693e+02
3.725000000000000000e+01  6.534600000000000000e+04  2.556286368934435416e+02
3.737500000000000000e+01  6.399800000000000000e+04  2.529782599355130230e+02
3.750000000000000000e+01  6.523500000000000000e+04  2.554114327903118635e+02
3.762500000000000000e+01  6.325565217391304759e+04  2.533227205683368197e+02
3.775000000000000000e+01  6.453086956521738466e+04  2.558634392775102810e+02
3.787500000000000000e+01  6.372089552238805481e+04  2.580195146665531638e+02
3.800000000000000000e+01  6.387600000000000000e+04  2.527370174707298247e+02
3.812500000000000000e+01  6.279811594202898414e+04  2.524049000403463481e+02
3.825000000000000000e+01  6.396000000000000000e+04  2.411336860445975390e+02
3.837500000000000000e+01  6.319422535211267677e+04  2.496080243904652605e+02
3.850000000000000000e+01  6.285800000000000000e+04  2.507149776140228994e+02
3.862500000000000000e+01  6.296450704225352092e+04  2.491539343446233374e+02
3.875000000000000000e+01  6.190333333333333576e+04  2.506002455940285927e+02
3.887500000000000000e+01  6.306900000000000000e+04  2.511354216354196467e+02
3.900000000000000000e+01  6.145000000000000000e+04  2.478911051248107924e+02
3.912500000000000000e+01  6.242985507246376801e+04  2.516637351323395535e+02
3.925000000000000000e+01  6.231100000000000000e+04  2.496217137991004051e+02
3.937500000000000000e+01  6.227772727272727207e+04  2.570060991226198439e+02
3.950000000000000000e+01  6.102072463768115995e+04  2.488073209649657827e+02
3.962500000000000000e+01  6.223560000000000582e+04  2.410115349936595806e+02
3.975000000000000000e+01  6.091821917808218859e+04  2.416913956240663310e+02
3.987500000000000000e+01  6.083000000000000000e+04  2.448943434149096845e+02
4.000000000000000000e+01  6.169100000000000000e+04  2.483767299889424294e+02
4.012500000000000000e+01  6.145100000000000000e+04  2.478931221312926994e+02
4.025000000000000000e+01  6.123173913043478387e+04  2.492371473909367126e+02
4.037500000000000000e+01  5.965774647887323954e+04  2.425231876098996509e+02
4.050000000000000000e+01  6.219855072463768010e+04  2.511970919338224348e+02
4.062500000000000000e+01  5.971000000000000000e+04  2.479237311565559594e+02
4.075000000000000000e+01  6.146710144927536749e+04  2.497156963558983875e+02
4.087500000000000000e+01  6.016088235294118203e+04  2.488580319563830017e+02
4.100000000000000000e+01  6.030121621621621307e+04  2.388340239901753534e+02
4.112500000000000000e+01  5.958361111111110949e+04  2.406834244447862829e+02
4.125000000000000000e+01  5.993263888888889051e+04  2.413873305792943427e+02
4.137500000000000000e+01  5.942704225352112553e+04  2.420537990992934567e+02
4.150000000000000000e+01  5.891300000000000000e+04  2.427200032959788700e+02
4.162500000000000000e+01  5.931637681159420026e+04  2.453080399141961152e+02
4.175000000000000000e+01  5.860014492753623199e+04  2.438225223195227045e+02
4.187500000000000000e+01  5.893391304347826372e+04  2.445159048513364155e+02
4.200000000000000000e+01  5.836579710144927958e+04  2.433344986204413658e+02
4.212500000000000000e+01  5.937132352941176214e+04  2.472196167931170407e+02
4.225000000000000000e+01  5.803608695652173628e+04  2.426462232676135216e+02
4.237500000000000000e+01  5.832513513513514044e+04  2.348881119338110466e+02
4.250000000000000000e+01  5.761095890410958964e+04  2.350391142991226445e+02
4.262500000000000000e+01  5.823014084507042571e+04  2.396038355625105680e+02
4.275000000000000000e+01  5.915200000000000000e+04  2.432118418169641814e+02
4.287500000000000000e+01  5.811281690140844876e+04  2.393623331322523882e+02
4.300000000000000000e+01  5.775405797101449571e+04  2.420559301151858733e+02
4.312500000000000000e+01  5.804014492753623199e+04  2.426547062148706289e+02
4.325000000000000000e+01  5.729956521739130403e+04  2.411016252512677909e+02
4.337500000000000000e+01  5.719304347826087178e+04  2.408774131510706979e+02
4.350000000000000000e+01  5.804521739130435162e+04  2.426653094819301657e+02
4.362500000000000000e+01  5.700507462686567305e+04  2.440441366944395440e+02
4.375000000000000000e+01  6.008333333333333576e+04  2.368074698521517689e+02
4.387500000000000000e+01  6.302109589041096478e+04  2.458275571210845669e+02
4.400000000000000000e+01  5.027750000000000000e+04  2.210902593462176355e+02
4.412500000000000000e+01  5.903942028985507204e+04  2.447346809550534772e+02
4.425000000000000000e+01  5.605782608695652016e+04  2.384748589455213903e+02
4.437500000000000000e+01  5.707800000000000000e+04  2.389100249047745592e+02
4.450000000000000000e+01  5.895826086956521613e+04  2.445664090148103185e+02
4.462500000000000000e+01  5.819637681159420026e+04  2.429810744944693681e+02
4.475000000000000000e+01  5.749231884057971183e+04  2.415068132636469329e+02
4.487500000000000000e+01  5.768304347826087178e+04  2.419070681390417121e+02
4.500000000000000000e+01  5.720521739130435162e+04  2.409030479527344255e+02
4.512500000000000000e+01  5.753520547945205180e+04  2.348845354217610009e+02
4.525000000000000000e+01  5.613904109589041036e+04  2.320171485369936590e+02
4.537500000000000000e+01  5.682028169014084415e+04  2.366854368830774149e+02
4.550000000000000000e+01  5.717323943661971862e+04  2.374194232642860243e+02
4.562500000000000000e+01  5.698304347826087178e+04  2.404347826086956559e+02
4.575000000000000000e+01  5.664800000000000000e+04  2.380084032129958302e+02
4.587500000000000000e+01  5.675072463768115995e+04  2.399441578946911307e+02
4.600000000000000000e+01  5.655898550724637607e+04  2.395384748832228468e+02
4.612500000000000000e+01  5.608441176470588834e+04  2.402789072873381144e+02
4.625000000000000000e+01  5.726100000000000000e+04  2.392927077869277639e+02
4.637500000000000000e+01  5.554808823529411166e+04  2.391272789464476318e+02
4.650000000000000000e+01  5.721800000000000000e+04  2.392028427924718414e+02
4.662500000000000000e+01  5.690815789473684708e+04  2.289441167343192660e+02
4.675000000000000000e+01  5.872800000000000000e+04  2.423386060866076832e+02
4.687500000000000000e+01  6.080958333333333576e+04  2.431469272697903818e+02
4.700000000000000000e+01  6.183739130434783146e+04  2.504667350791765728e+02
4.712500000000000000e+01  6.509200000000000000e+04  2.551313387257629586e+02
4.725000000000000000e+01  6.482200000000000000e+04  2.546016496411600372e+02
4.737500000000000000e+01  6.789400000000000000e+04  2.605647712182135933e+02
4.750000000000000000e+01  6.569602941176469903e+04  2.600543511863130561e+02
4.762500000000000000e+01  6.740588235294117476e+04  2.634167957904322179e+02
4.775000000000000000e+01  6.366191176470588834e+04  2.559967205537134589e+02
4.787500000000000000e+01  6.528362318840579974e+04  2.573514380276598104e+02
4.800000000000000000e+01  6.058500000000000000e+04  2.362244138191701381e+02
4.812500000000000000e+01  5.931041666666666424e+04  2.401310165151361389e+02
4.825000000000000000e+01  5.712985915492957429e+04  2.373293349995718984e+02
4.837500000000000000e+01  5.500600000000000000e+04  2.345335796852979513e+02
4.850000000000000000e+01  5.501507042253520922e+04  2.328952774869832751e+02
4.862500000000000000e+01  5.352159420289855188e+04  2.330177449920958850e+02
4.875000000000000000e+01  5.390205882352941262e+04  2.355576649035426442e+02
4.887500000000000000e+01  5.301367647058823786e+04  2.336084378808585598e+02
4.900000000000000000e+01  5.326176470588234952e+04  2.341544088784830535e+02
4.912500000000000000e+01  5.263086956521738466e+04  2.310706294421691496e+02
4.925000000000000000e+01  5.362940298507462285e+04  2.367080892927935736e+02
4.937500000000000000e+01  5.185653846153846098e+04  2.157264914936269804e+02
4.950000000000000000e+01  5.292388888888889051e+04  2.268342585770446078e+02
4.962500000000000000e+01  5.154464788732393936e+04  2.254299601454173398e+02
4.975000000000000000e+01  5.217819444444444525e+04  2.252305488922872030e+02
4.987500000000000000e+01  5.216235294117646845e+04  2.317251384558601046e+02
5.000000000000000000e+01  5.147739130434783146e+04  2.285244854576555156e+02
5.012500000000000000e+01  5.204550724637681560e+04  2.297820488203820162e+02
5.025000000000000000e+01  5.164352941176470631e+04  2.305698522084030913e+02
5.037500000000000000e+01  5.214897058823529369e+04  2.316954117819997805e+02
5.050000000000000000e+01  5.207794117647058738e+04  2.315375678561034647e+02
5.062500000000000000e+01  5.172073529411765048e+04  2.307421361411986709e+02
5.075000000000000000e+01  5.098727272727272793e+04  2.152952997993743622e+02
5.087500000000000000e+01  5.137222222222222626e+04  2.234842635385827521e+02
5.100000000000000000e+01  5.184794520547945285e+04  2.229735583679860156e+02
5.112500000000000000e+01  5.099956521739130403e+04  2.274614018926655206e+02
5.125000000000000000e+01  5.126900000000000000e+04  2.264265885447201754e+02
5.137500000000000000e+01  4.988323529411765048e+04  2.266062427943158184e+02
5.150000000000000000e+01  5.154028985507246398e+04  2.286640561557713340e+02
5.162500000000000000e+01  5.089102941176470631e+04  2.288838666102608386e+02
5.175000000000000000e+01  5.111826086956521613e+04  2.277259432519573465e+02
5.187500000000000000e+01  4.935000000000000000e+04  2.237525807478080253e+02
5.200000000000000000e+01  5.096102941176470631e+04  2.290412260227251693e+02
5.212500000000000000e+01  4.979818181818181620e+04  2.127700034783223089e+02
5.225000000000000000e+01  4.999750000000000000e+04  2.204737638712496732e+02
5.237500000000000000e+01  4.986366197183098848e+04  2.217236046830291230e+02
5.250000000000000000e+01  5.079565217391304759e+04  2.270062136726630229e+02
5.262500000000000000e+01  5.004200000000000000e+04  2.237006928911933414e+02
5.275000000000000000e+01  4.951676470588234952e+04  2.257723192475293104e+02
5.287500000000000000e+01  5.014957746478873014e+04  2.223583715262815872e+02
5.300000000000000000e+01  4.916367647058823786e+04  2.249659239863168807e+02
5.312500000000000000e+01  5.085246376811593655e+04  2.271331239529791048e+02
5.325000000000000000e+01  4.902264705882353155e+04  2.246430270882610216e+02
5.337500000000000000e+01  5.134500000000000000e+04  2.299024729288998685e+02
5.350000000000000000e+01  5.070613333333333139e+04  2.175447642312828407e+02
5.362500000000000000e+01  5.244534246575342695e+04  2.242544412474714193e+02
5.375000000000000000e+01  5.231464788732393936e+04  2.271075116783721057e+02
5.387500000000000000e+01  5.344652173913043225e+04  2.328542656055757902e+02
5.400000000000000000e+01  5.396309859154930018e+04  2.306578742410819984e+02
5.412500000000000000e+01  5.317869565217391209e+04  2.322701043747631786e+02
5.425000000000000000e+01  5.348101449275362393e+04  2.329293920039187924e+02
5.437500000000000000e+01  5.179794117647058738e+04  2.309142915338980515e+02
5.450000000000000000e+01  5.291289855072463251e+04  2.316889124513925822e+02
5.462500000000000000e+01  5.047823529411765048e+04  2.279536998457283232e+02
5.475000000000000000e+01  5.251149253731343197e+04  2.342279944780152334e+02
5.487500000000000000e+01  4.895026315789473301e+04  2.123340968805079569e+02
5.500000000000000000e+01  4.899520547945205180e+04  2.167526329353488563e+02
5.512500000000000000e+01  4.877619718309859309e+04  2.192925180902871034e+02
5.525000000000000000e+01  4.900000000000000000e+04  2.213594362117865444e+02
5.537500000000000000e+01  4.896799999999999272e+04  2.212871437747796506e+02
5.550000000000000000e+01  4.778971014492753602e+04  2.201869992524117094e+02
5.562500000000000000e+01  4.811267605633803032e+04  2.177958510431290904e+02
5.575000000000000000e+01  4.696382352941176214e+04  2.198752201971550164e+02
5.587500000000000000e+01  4.842970588235294417e+04  2.232803372367118868e+02
5.600000000000000000e+01  4.703059701492537715e+04  2.216674189917393676e+02
5.612500000000000000e+01  4.867573529411765048e+04  2.238467658186600886e+02
5.625000000000000000e+01  4.654621621621621307e+04  2.098337545030665012e+02
5.637500000000000000e+01  4.786013513513514044e+04  2.127747654293295625e+02
5.650000000000000000e+01  4.700352112676057004e+04  2.152707590511075182e+02
5.662500000000000000e+01  4.668408450704225106e+04  2.145380203834314727e+02
5.675000000000000000e+01  4.619800000000000000e+04  2.149372001306428217e+02
5.687500000000000000e+01  4.615500000000000000e+04  2.148371476258238033e+02
5.700000000000000000e+01  4.789521739130435162e+04  2.204299230519431205e+02
5.712500000000000000e+01  4.567705882352941262e+04  2.168421124461385716e+02
5.725000000000000000e+01  4.729838235294118203e+04  2.206569990860809867e+02
5.737500000000000000e+01  4.621029411764705583e+04  2.181041503851426171e+02
5.750000000000000000e+01  4.821432835820894979e+04  2.244396998788557767e+02
5.762500000000000000e+01  4.564486111111110949e+04  2.106583686979207641e+02
5.775000000000000000e+01  4.664578947368420631e+04  2.072757273460026113e+02
5.787500000000000000e+01  4.645633802816901152e+04  2.140140729205767798e+02
5.800000000000000000e+01  4.619027777777777374e+04  2.119132240002328160e+02
5.812500000000000000e+01  4.555600000000000000e+04  2.134385157369681565e+02
5.825000000000000000e+01  4.510000000000000000e+04  2.123676058159530271e+02
5.837500000000000000e+01  4.549485294117646845e+04  2.164091884629926881e+02
5.850000000000000000e+01  5.003147058823529369e+04  2.269426897458160681e+02
5.862500000000000000e+01  2.841164179104477807e+04  1.722898861115052114e+02
5.875000000000000000e+01  4.984202898550724785e+04  2.248652423823522497e+02
5.887500000000000000e+01  5.274865671641791414e+04  2.347563350964129256e+02
5.900000000000000000e+01  4.820239436619718617e+04  2.179988243163091113e+02
5.912500000000000000e+01  4.619363636363636033e+04  2.049249005758769897e+02
5.925000000000000000e+01  4.611638888888889051e+04  2.117436612662106370e+02
5.937500000000000000e+01  4.545859154929577926e+04  2.117034002950561842e+02
5.950000000000000000e+01  4.669700000000000000e+04  2.160948865660638489e+02
5.962500000000000000e+01  4.567144927536231990e+04  2.152518393355190085e+02
5.975000000000000000e+01  4.657058823529411166e+04  2.189527607012186650e+02
5.987500000000000000e+01  4.564608695652173628e+04  2.151920640930916022e+02
6.000000000000000000e+01  4.794176470588234952e+04  2.221526876024608157e+02
6.012500000000000000e+01  4.638283582089551783e+04  2.201355927964875718e+02
6.025000000000000000e+01  4.732101449275362393e+04  2.191046012684270750e+02
6.037500000000000000e+01  4.672761194029850594e+04  2.209522416088003069e+02
6.050000000000000000e+01  4.886000000000000000e+04  2.054864748785785480e+02
6.062500000000000000e+01  4.740361111111110949e+04  2.146784668656883923e+02
6.075000000000000000e+01  4.734800000000000000e+04  2.175959558447721065e+02
6.087500000000000000e+01  4.795600000000000000e+04  2.189885841773493098e+02
6.100000000000000000e+01  4.699130434782608791e+04  2.183399591100341581e+02
6.112500000000000000e+01  4.759391304347826372e+04  2.197354771064082115e+02
6.125000000000000000e+01  4.515208955223880184e+04  2.171953611505644517e+02
6.137500000000000000e+01  4.611376811594203173e+04  2.162916632602450022e+02
6.150000000000000000e+01  4.517779411764705583e+04  2.156537798606045442e+02
6.162500000000000000e+01  4.674537313432835799e+04  2.209942296607043488e+02
6.175000000000000000e+01  4.469550724637681560e+04  2.129395881957180450e+02
6.187500000000000000e+01  4.577300000000000000e+04  2.001283962859843655e+02
6.200000000000000000e+01  4.540277777777777374e+04  2.100989992983613490e+02
6.212500000000000000e+01  4.576800000000000000e+04  2.139345694365452459e+02
6.225000000000000000e+01  4.744900000000000000e+04  2.178279137300818888e+02
6.237500000000000000e+01  4.804676470588234952e+04  2.223958291971561607e+02
6.250000000000000000e+01  5.182130434782608791e+04  2.292865843091815066e+02
6.262500000000000000e+01  5.381072463768115995e+04  2.336462929561269846e+02
6.275000000000000000e+01  5.903840579710144812e+04  2.447325782698834757e+02
6.287500000000000000e+01  6.198134328358208586e+04  2.544732349603886519e+02
6.300000000000000000e+01  6.939058823529411166e+04  2.672666980550950484e+02
6.312500000000000000e+01  7.161405797101449571e+04  2.695402435057613957e+02
6.325000000000000000e+01  8.007012820512820326e+04  2.680630660191302468e+02
6.337500000000000000e+01  8.285083333333332848e+04  2.838122994098322920e+02
6.350000000000000000e+01  8.509042253521126986e+04  2.896410983955587994e+02
6.362500000000000000e+01  8.694000000000000000e+04  2.969848480983499144e+02
6.375000000000000000e+01  8.479500000000000000e+04  2.911958104094219379e+02
6.387500000000000000e+01  8.542536231884057634e+04  2.943864994324623012e+02
6.400000000000000000e+01  8.054220588235293690e+04  2.879428663652868181e+02
6.412500000000000000e+01  7.707710144927536021e+04  2.796321885809450691e+02
6.425000000000000000e+01  7.043235294117646117e+04  2.692654688844524458e+02
6.437500000000000000e+01  6.801666666666665697e+04  2.626831084385465260e+02
6.450000000000000000e+01  5.854439393939394358e+04  2.491837455104765411e+02
6.462500000000000000e+01  5.458272727272727934e+04  2.227569553505003057e+02
6.475000000000000000e+01  5.031561643835616997e+04  2.196539354968301723e+02
6.487500000000000000e+01  4.779521126760563493e+04  2.170761140197627981e+02
6.500000000000000000e+01  4.614500000000000000e+04  2.148138729225838404e+02
6.512500000000000000e+01  4.444797101449275215e+04  2.123491099756634526e+02
6.525000000000000000e+01  4.430300000000000000e+04  2.104827783929127065e+02
6.537500000000000000e+01  4.321434782608695241e+04  2.093815720690748776e+02
6.550000000000000000e+01  4.303764705882353155e+04  2.104838716092339155e+02
6.562500000000000000e+01  4.269492753623188037e+04  2.081194238940094010e+02
6.575000000000000000e+01  4.397880597014925297e+04  2.143548605408082892e+02
6.587500000000000000e+01  4.062969696969696815e+04  2.075863744243545170e+02
6.600000000000000000e+01  4.310986842105262622e+04  1.992647930674977204e+02
6.612500000000000000e+01  4.196453333333333285e+04  1.979062853417692054e+02
6.625000000000000000e+01  4.301845070422535355e+04  2.059430917324852999e+02
6.637500000000000000e+01  4.231500000000000000e+04  2.057061010276554782e+02
6.650000000000000000e+01  4.210600000000000000e+04  2.051974658712919108e+02
6.662500000000000000e+01  4.258333333333333576e+04  2.078472590432393474e+02
6.675000000000000000e+01  4.113700000000000000e+04  2.028225825691015132e+02
6.687500000000000000e+01  4.219764705882353155e+04  2.084196591621325751e+02
6.700000000000000000e+01  4.182447761194030318e+04  2.090387892604145748e+02
6.712500000000000000e+01  4.248582089552238904e+04  2.106850044138740827e+02
6.725000000000000000e+01  4.032424242424241675e+04  2.068045838575623350e+02
6.737500000000000000e+01  4.330328947368420631e+04  1.997113134646151593e+02
6.750000000000000000e+01  4.134293333333333430e+04  1.964350726774059694e+02
6.762500000000000000e+01  4.146760563380281383e+04  2.021968220576874558e+02
6.775000000000000000e+01  4.055722222222222626e+04  1.985714801174866011e+02
6.787500000000000000e+01  4.091700000000000000e+04  2.022795095900719389e+02
6.800000000000000000e+01  4.059797101449275215e+04  2.029441977638363994e+02
6.812500000000000000e+01  4.039000000000000000e+04  2.009726349531199219e+02
6.825000000000000000e+01  4.110567164179105021e+04  2.072347077672168894e+02
6.837500000000000000e+01  3.928378787878787989e+04  2.041191404739039399e+02
6.850000000000000000e+01  4.227268656716417900e+04  2.101558788813210583e+02
6.862500000000000000e+01  4.030746268656715984e+04  2.052127541081505626e+02
6.875000000000000000e+01  4.019135135135135351e+04  1.949842195484032459e+02
6.887500000000000000e+01  3.985210526315789321e+04  1.915878034390310631e+02
6.900000000000000000e+01  4.063694444444444525e+04  1.987665475679918359e+02
6.912500000000000000e+01  4.046098591549295816e+04  1.997275966771484264e+02
6.925000000000000000e+01  4.000154929577464645e+04  1.985904005560622920e+02
6.937500000000000000e+01  4.019400000000000000e+04  2.004844133592434616e+02
6.950000000000000000e+01  4.034985294117646845e+04  2.038053319268151711e+02
6.962500000000000000e+01  4.036074626865671598e+04  2.053483476017659086e+02
6.975000000000000000e+01  3.903910447761194519e+04  2.019582236035143410e+02
6.987500000000000000e+01  4.246492537313432695e+04  2.106331881306472553e+02
7.000000000000000000e+01  3.888712121212120837e+04  2.030859828671054572e+02
7.012500000000000000e+01  4.164808219178082072e+04  1.998412299056447807e+02
7.025000000000000000e+01  3.947371794871795282e+04  1.882156515607540825e+02
7.037500000000000000e+01  3.981465753424657305e+04  1.953930365480543969e+02
7.050000000000000000e+01  3.942577464788732323e+04  1.971559840512401536e+02
7.062500000000000000e+01  3.977084507042253972e+04  1.980168990842746268e+02
7.075000000000000000e+01  4.000191176470588834e+04  2.029247116083077742e+02
7.087500000000000000e+01  3.841455882352941262e+04  1.988577350492741971e+02
7.100000000000000000e+01  4.031059701492537715e+04  2.052207326759927355e+02
7.112500000000000000e+01  3.941208955223880184e+04  2.029206987469513592e+02
7.125000000000000000e+01  4.099492537313432695e+04  2.069553552014497768e+02
7.137500000000000000e+01  3.799328358208955615e+04  1.992347243436059898e+02
7.150000000000000000e+01  4.113800000000000000e+04  2.028250477628441217e+02
7.162500000000000000e+01  3.972283950617284427e+04  1.852791942451968055e+02
7.175000000000000000e+01  4.077643835616438446e+04  1.977389549737993093e+02
7.187500000000000000e+01  3.980763888888889051e+04  1.967279114461781546e+02
7.200000000000000000e+01  4.048739130434783146e+04  2.026676222078094156e+02
7.212500000000000000e+01  4.167264705882353155e+04  2.071190796348538186e+02
7.225000000000000000e+01  4.079352941176470631e+04  2.049227637436749490e+02
7.237500000000000000e+01  4.206164179104477080e+04  2.096306248766295539e+02
7.250000000000000000e+01  4.119294117647058738e+04  2.059235252949409585e+02
7.262500000000000000e+01  4.308865671641791414e+04  2.121744554711204387e+02
7.275000000000000000e+01  4.033985074626866117e+04  2.052951843565313368e+02
7.287500000000000000e+01  4.386074626865671598e+04  2.140669527990860104e+02
7.300000000000000000e+01  4.157166666666667152e+04  1.861264504458072793e+02
7.312500000000000000e+01  5.506219178082191502e+04  2.297811175480049144e+02
7.325000000000000000e+01  4.708732394366196968e+04  2.154625772564149599e+02
7.337500000000000000e+01  2.462884057971014408e+04  1.580689099673198257e+02
7.350000000000000000e+01  4.270205882352941262e+04  2.096616362859543585e+02
7.362500000000000000e+01  4.064838235294118203e+04  2.045578720322946253e+02
7.375000000000000000e+01  4.100455882352941262e+04  2.054521240082846418e+02
7.387500000000000000e+01  4.043014705882353155e+04  2.040080121738895400e+02
7.400000000000000000e+01  4.111089552238805481e+04  2.072478754753885539e+02
7.412500000000000000e+01  3.850104477611940820e+04  2.005616417816592616e+02
7.425000000000000000e+01  4.107641791044776619e+04  2.071609531341582056e+02
7.437500000000000000e+01  3.871590361445783492e+04  1.806985525779319062e+02
7.450000000000000000e+01  3.961054054054053995e+04  1.935702204396426964e+02
7.462500000000000000e+01  3.899800000000000000e+04  1.974791128195587362e+02
7.475000000000000000e+01  3.865420289855072042e+04  1.980262829466335006e+02
7.487500000000000000e+01  3.912289855072463251e+04  1.992232342886875074e+02
7.500000000000000000e+01  3.757661764705881797e+04  1.966769236177366338e+02
7.512500000000000000e+01  4.085941176470588834e+04  2.050881741338348547e+02
7.525000000000000000e+01  3.801000000000000000e+04  1.978078390167351017e+02
7.537500000000000000e+01  4.045477611940298084e+04  2.055874120790142285e+02
7.550000000000000000e+01  3.684985294117646845e+04  1.947656852356921604e+02
7.562500000000000000e+01  4.118089552238805481e+04  2.074242421160563481e+02
7.575000000000000000e+01  3.804370370370370802e+04  1.813209166248336146e+02
7.587500000000000000e+01  3.918369863013698341e+04  1.938386175284399826e+02
7.600000000000000000e+01  3.834816901408450940e+04  1.944429323928954432e+02
7.612500000000000000e+01  3.890681159420289623e+04  1.986722890312121308e+02
7.625000000000000000e+01  3.994159420289855188e+04  2.012969395867670244e+02
7.637500000000000000e+01  3.792275362318840052e+04  1.961437196245705934e+02
7.650000000000000000e+01  4.016044117647058738e+04  2.033264139821419576e+02
7.662500000000000000e+01  3.710411764705881797e+04  1.954364736299586127e+02
7.675000000000000000e+01  4.059485294117646845e+04  2.044231376438397660e+02
7.687500000000000000e+01  3.578567164179104293e+04  1.933598074785447807e+02
7.700000000000000000e+01  4.106878787878787989e+04  2.087050678014004177e+02
7.712500000000000000e+01  3.610670886075949238e+04  1.788666719439888766e+02
7.725000000000000000e+01  3.978459459459459322e+04  1.939950410908994058e+02
7.737500000000000000e+01  3.790402777777777374e+04  1.919665025916864067e+02
7.750000000000000000e+01  3.807800000000000000e+04  1.951358501147341826e+02
7.762500000000000000e+01  3.954797101449275215e+04  2.003025961257187362e+02
7.775000000000000000e+01  3.854666666666666424e+04  1.977506359273259875e+02
7.787500000000000000e+01  3.913710144927536749e+04  1.992593932995517321e+02
7.800000000000000000e+01  3.817264705882353155e+04  1.982306030165835296e+02
7.812500000000000000e+01  4.048161764705881797e+04  2.041378295667111615e+02
7.825000000000000000e+01  3.691545454545454413e+04  1.978705506661783033e+02
7.837500000000000000e+01  4.158546875000000000e+04  2.132700317562514272e+02
7.850000000000000000e+01  3.896518987341771572e+04  1.858120491500954188e+02
7.862500000000000000e+01  4.122439999999999418e+04  1.961532734028842810e+02
7.875000000000000000e+01  3.979500000000000000e+04  1.966966785010192780e+02
7.887500000000000000e+01  3.983000000000000000e+04  1.981641089715971873e+02
7.900000000000000000e+01  4.164492753623188037e+04  2.055443436601212568e+02
7.912500000000000000e+01  4.023100000000000000e+04  2.005766686332186453e+02
7.925000000000000000e+01  4.194029411764705583e+04  2.077831373810945195e+02
7.937500000000000000e+01  4.021043478260869597e+04  2.019732524543642000e+02
7.950000000000000000e+01  4.138462686567164201e+04  2.079366967604730974e+02
7.962500000000000000e+01  4.020406250000000000e+04  2.096978620763096899e+02
7.975000000000000000e+01  4.152640625000000000e+04  2.131185276693171318e+02
7.987500000000000000e+01  3.914818181818182347e+04  1.886511494752870988e+02
8.000000000000000000e+01  4.005615384615385119e+04  1.895991307331166240e+02
8.012500000000000000e+01  3.927875000000000000e+04  1.954166666666666572e+02
8.025000000000000000e+01  3.918736111111110949e+04  1.951891987341234085e+02
8.037500000000000000e+01  4.025600000000000000e+04  2.006389792637512528e+02
8.050000000000000000e+01  3.654299999999999272e+04  1.911622347640872306e+02
8.062500000000000000e+01  4.056652173913043225e+04  2.028655770308145918e+02
8.075000000000000000e+01  3.694558823529411166e+04  1.950185201035814657e+02
8.087500000000000000e+01  4.370953125000000000e+04  2.186488047181770185e+02
8.100000000000000000e+01  3.832609375000000000e+04  2.047417032239951311e+02
8.112500000000000000e+01  4.288156250000000000e+04  2.165680239194489332e+02
8.125000000000000000e+01  4.043328947368420631e+04  1.929797597499027972e+02
8.137500000000000000e+01  4.270962500000000000e+04  1.933156017371593123e+02
8.150000000000000000e+01  4.444712328767123836e+04  2.064474005163511663e+02
8.162500000000000000e+01  4.469597222222222626e+04  2.084572316765998039e+02
8.175000000000000000e+01  4.747478873239436507e+04  2.163472434216887734e+02
8.187500000000000000e+01  4.476647887323942996e+04  2.100856137061564937e+02
8.200000000000000000e+01  4.873724637681159948e+04  2.223591313187370702e+02
8.212500000000000000e+01  4.489625000000000000e+04  2.215970970872588168e+02
8.225000000000000000e+01  5.068218750000000000e+04  2.354435018812899614e+02
8.237500000000000000e+01  4.563890625000000000e+04  2.234223661832841117e+02
8.250000000000000000e+01  4.985203125000000000e+04  2.335073000565239170e+02
8.262500000000000000e+01  4.596890410958903522e+04  2.099518303420798588e+02
8.275000000000000000e+01  4.712666666666666424e+04  1.981722034550310525e+02
8.287500000000000000e+01  4.647720000000000437e+04  2.082755866634397535e+02
8.300000000000000000e+01  4.388136986301369325e+04  2.051292906828289517e+02
8.312500000000000000e+01  4.602013888888889051e+04  2.115225796399307683e+02
8.325000000000000000e+01  4.251070422535211401e+04  2.047241117023565948e+02
8.337500000000000000e+01  4.356515625000000000e+04  2.182874014881241465e+02
8.350000000000000000e+01  3.952046875000000000e+04  2.079074618557797010e+02
8.362500000000000000e+01  4.314187500000000000e+04  2.172243673744959835e+02
8.375000000000000000e+01  3.696437500000000000e+04  2.010715921164648421e+02
8.387500000000000000e+01  4.264640625000000000e+04  2.159733938149269079e+02
8.400000000000000000e+01  3.595156250000000000e+04  1.982978100846678444e+02
8.412500000000000000e+01  4.035127659574468271e+04  1.733459633127669406e+02
8.425000000000000000e+01  3.894454545454545587e+04  1.881598581828891383e+02
8.437500000000000000e+01  3.757040000000000146e+04  1.872583954504220856e+02
8.450000000000000000e+01  4.224452054794520518e+04  2.012670970651768982e+02
8.462500000000000000e+01  3.653246153846153902e+04  1.983498194795598124e+02
8.475000000000000000e+01  4.339562500000000000e+04  2.178622611737746411e+02
8.487500000000000000e+01  3.853390625000000000e+04  2.052960300661888198e+02
8.500000000000000000e+01  4.241234375000000000e+04  2.153798991934077947e+02
8.512500000000000000e+01  3.891890625000000000e+04  2.063190580410290238e+02
8.525000000000000000e+01  4.345687500000000000e+04  2.180159559097682234e+02
8.537500000000000000e+01  4.276781250000000000e+04  2.162805930310784959e+02
8.550000000000000000e+01  4.073562500000000000e+04  1.723457568257290689e+02
8.562500000000000000e+01  4.196237500000000000e+04  1.916170089658013751e+02
8.575000000000000000e+01  4.064727272727272793e+04  1.922292020367937937e+02
8.587500000000000000e+01  4.332059701492537715e+04  2.127447419784429599e+02
8.600000000000000000e+01  3.708468750000000000e+04  2.013985525100044072e+02
8.612500000000000000e+01  4.387687500000000000e+04  2.190669578719027299e+02
8.625000000000000000e+01  3.810843750000000000e+04  2.041595050827293676e+02
8.637500000000000000e+01  4.149359375000000000e+04  2.130343121754392541e+02
8.650000000000000000e+01  3.750796875000000000e+04  2.025446637665690162e+02
8.662500000000000000e+01  4.097625000000000000e+04  2.117020865213661409e+02
8.675000000000000000e+01  3.654656250000000000e+04  1.999319952743307169e+02
8.687500000000000000e+01  3.861340000000000146e+04  1.644061434375248894e+02
8.700000000000000000e+01  3.744423529411764321e+04  1.756030440104725017e+02
8.712500000000000000e+01  3.538154929577464645e+04  1.867704944994055438e+02
8.725000000000000000e+01  3.801984375000000000e+04  2.039220539852482261e+02
8.737500000000000000e+01  3.371593750000000000e+04  1.920333477306090231e+02
8.750000000000000000e+01  3.782734375000000000e+04  2.034051553588612933e+02
8.762500000000000000e+01  3.492125000000000000e+04  1.954357111366804247e+02
8.775000000000000000e+01  3.781312500000000000e+04  2.033669232415881538e+02
8.787500000000000000e+01  5.078718750000000000e+04  2.356872638224751313e+02
8.800000000000000000e+01  4.499687500000000000e+03  7.015363998485752006e+01
8.812500000000000000e+01  4.615625000000000000e+04  2.246851095144046155e+02
8.825000000000000000e+01  3.645522935779816180e+04  1.530085461139575500e+02
8.837500000000000000e+01  3.642445783132530778e+04  1.752695702835571581e+02
8.850000000000000000e+01  3.350812500000000000e+04  1.914406219138195411e+02
8.862500000000000000e+01  3.772125000000000000e+04  2.031197114696158792e+02
8.875000000000000000e+01  3.411406250000000000e+04  1.931638057695462862e+02
8.887500000000000000e+01  3.723562500000000000e+04  2.018079900394183994e+02
8.900000000000000000e+01  3.356281250000000000e+04  1.915967801709491027e+02
8.912500000000000000e+01  3.719515625000000000e+04  2.016982948575358989e+02
8.925000000000000000e+01  3.359781250000000000e+04  1.916966546966195892e+02
8.937500000000000000e+01  3.734937500000000000e+04  2.021160035876674499e+02
8.950000000000000000e+01  3.308265625000000000e+04  1.902213323300977663e+02
8.962500000000000000e+01  3.569453125000000000e+04  1.397155924632027109e+02
8.975000000000000000e+01  3.800343750000000000e+04  2.038780512110732559e+02
8.987500000000000000e+01  3.356171875000000000e+04  1.915936582531178090e+02
9.000000000000000000e+01  3.783062500000000000e+04  2.034139771346846146e+02
9.012500000000000000e+01  3.320625000000000000e+04  1.905763257529644079e+02
9.025000000000000000e+01  3.786890625000000000e+04  2.035168695979217830e+02
9.037500000000000000e+01  3.277640625000000000e+04  1.893388347274205898e+02
9.050000000000000000e+01  3.787546875000000000e+04  2.035345030831689144e+02
9.062500000000000000e+01  3.389859375000000000e+04  1.925528159079022714e+02
9.075000000000000000e+01  3.689875000000000000e+04  2.008930257935799943e+02
9.087500000000000000e+01  3.494800000000000000e+04  1.869438418349211020e+02
9.100000000000000000e+01  3.495065573770491756e+04  1.416109280086463968e+02
9.112500000000000000e+01  3.789843750000000000e+04  2.035962082545374869e+02
9.125000000000000000e+01  3.373015625000000000e+04  1.920738357987300162e+02
9.137500000000000000e+01  3.816531250000000000e+04  2.043117973756654919e+02
9.150000000000000000e+01  3.223500000000000000e+04  1.877685576714056879e+02
9.162500000000000000e+01  3.833593750000000000e+04  2.047679946686615438e+02
9.175000000000000000e+01  3.303671875000000000e+04  1.900892188758018619e+02
9.187500000000000000e+01  3.888937500000000000e+04  2.062407668387848219e+02
9.200000000000000000e+01  3.308156250000000000e+04  1.902181878380062017e+02
9.212500000000000000e+01  3.717984375000000000e+04  2.016567730118740656e+02
9.225000000000000000e+01  3.446545454545454413e+04  1.655768778523705862e+02
9.237500000000000000e+01  3.594365384615385119e+04  1.555404896961277927e+02
9.250000000000000000e+01  3.751234375000000000e+04  2.025564760173381842e+02
9.262500000000000000e+01  3.320843750000000000e+04  1.905826028671688732e+02
9.275000000000000000e+01  3.696656250000000000e+04  2.010775415962085901e+02
9.287500000000000000e+01  3.428468750000000000e+04  1.936462675940979921e+02
9.300000000000000000e+01  3.640765625000000000e+04  1.995516825873374955e+02
9.312500000000000000e+01  3.312968750000000000e+04  1.903564963512540373e+02
9.325000000000000000e+01  3.836984375000000000e+04  2.048585282617311236e+02
9.337500000000000000e+01  3.341187500000000000e+04  1.911654735595578245e+02
9.350000000000000000e+01  3.573500000000000000e+04  1.814216519312777223e+02
9.362500000000000000e+01  3.426073170731707069e+04  1.710174438225882909e+02
9.375000000000000000e+01  3.479857142857142753e+04  1.576582457373530133e+02
9.387500000000000000e+01  3.748171875000000000e+04  2.024737757903785678e+02
9.400000000000000000e+01  3.314828125000000000e+04  1.904099068252161828e+02
9.412500000000000000e+01  3.627859375000000000e+04  1.991976704534028784e+02
9.425000000000000000e+01  3.447718750000000000e+04  1.941891444651966196e+02
9.437500000000000000e+01  3.648203125000000000e+04  1.997554046319836232e+02
9.450000000000000000e+01  3.416328125000000000e+04  1.933031010283784781e+02
9.462500000000000000e+01  3.623265625000000000e+04  1.990715142189798712e+02
9.475000000000000000e+01  3.364042253521126986e+04  1.821170331602996839e+02
9.487500000000000000e+01  3.598653333333333285e+04  1.832687401362030357e+02
9.500000000000000000e+01  3.502037974683543871e+04  1.761553752554067671e+02
9.512500000000000000e+01  3.393673684210525971e+04  1.581329080884134726e+02
9.525000000000000000e+01  3.710765625000000000e+04  2.014609118996474137e+02
9.537500000000000000e+01  3.296671875000000000e+04  1.898877263880225144e+02
9.550000000000000000e+01  3.748828125000000000e+04  2.024915001109614536e+02
9.562500000000000000e+01  3.421031250000000000e+04  1.934361116670695537e+02
9.575000000000000000e+01  3.672484375000000000e+04  2.004190556098957927e+02
9.587500000000000000e+01  3.386468750000000000e+04  1.924564936631783496e+02
9.600000000000000000e+01  3.669029411764705583e+04  1.943435628345454518e+02
9.612500000000000000e+01  3.403054794520547875e+04  1.806433842581134570e+02
9.625000000000000000e+01  3.601547945205479482e+04  1.858370018467662703e+02
9.637500000000000000e+01  3.484090909090909554e+04  1.779706540950172098e+02
9.650000000000000000e+01  3.588103448275862320e+04  1.699111469553744485e+02
9.662500000000000000e+01  3.765500000000000000e+04  1.940489628933893584e+02
9.675000000000000000e+01  3.461171875000000000e+04  1.945676421782730472e+02
9.687500000000000000e+01  3.869687500000000000e+04  2.057296940921509361e+02
9.700000000000000000e+01  3.447390625000000000e+04  1.941799035969930003e+02
9.712500000000000000e+01  3.902171875000000000e+04  2.065913959554281689e+02
9.725000000000000000e+01  3.605313432835821004e+04  1.940810495022547002e+02
9.737500000000000000e+01  3.935700000000000000e+04  1.983859874083852617e+02
9.750000000000000000e+01  3.745777777777777374e+04  1.908331311659935068e+02
9.762500000000000000e+01  3.966375000000000000e+04  1.963720427318172881e+02
9.775000000000000000e+01  3.968626666666667006e+04  1.924591269738994583e+02
9.787500000000000000e+01  4.021585365853658732e+04  1.852852038930188598e+02
9.800000000000000000e+01  4.182121621621621307e+04  1.988984915333914216e+02
9.812500000000000000e+01  3.875046875000000000e+04  2.058721088329171778e+02
9.825000000000000000e+01  4.381671875000000000e+04  2.189167333321336173e+02
9.837500000000000000e+01  4.023031250000000000e+04  2.097663087744907386e+02
9.850000000000000000e+01  4.557106060606060782e+04  2.198475450557362478e+02
9.862500000000000000e+01  3.948202898550724785e+04  2.001355348361149709e+02
9.875000000000000000e+01  4.551200000000000000e+04  2.133354166564942034e+02
9.887500000000000000e+01  4.004098591549295816e+04  1.986882693250596219e+02
9.900000000000000000e+01  4.244625000000000000e+04  2.031432684092682166e+02
9.912500000000000000e+01  4.299246575342465803e+04  2.030410108631382116e+02
9.925000000000000000e+01  4.183756410256410163e+04  1.937692748784401715e+02
9.937500000000000000e+01  4.494636363636363967e+04  2.021393840361456853e+02
9.950000000000000000e+01  3.846718750000000000e+04  2.051182252461370012e+02
9.962500000000000000e+01  4.355531250000000000e+04  2.182627385672483626e+02
9.975000000000000000e+01  3.916984615384615608e+04  2.053847882453896716e+02
9.987500000000000000e+01  4.254072463768115995e+04  2.077432474926850148e+02
1.000000000000000000e+02  3.857202898550724785e+04  1.978156816289868516e+02
1.001250000000000000e+02  3.994057971014492796e+04  2.012943831592212405e+02
1.002500000000000000e+02  3.808800000000000000e+04  1.951614716074871296e+02
1.003750000000000000e+02  4.010704225352112553e+04  1.988520916019176639e+02
1.005000000000000000e+02  3.787767123287670984e+04  1.905808348362134836e+02
1.006250000000000000e+02  3.660171052631579369e+04  1.836085559023707958e+02
1.007500000000000000e+02  3.824243589743589837e+04  1.852569425952781046e+02
1.008750000000000000e+02  3.475609375000000000e+04  1.949730174641160545e+02
1.010000000000000000e+02  3.791265625000000000e+04  2.036343973238251692e+02
1.011250000000000000e+02  3.333338235294117476e+04  1.852397796143071673e+02
1.012500000000000000e+02  3.722072463768115995e+04  1.943197247567307784e+02
1.013750000000000000e+02  3.388304347826087178e+04  1.854025406497847257e+02
1.015000000000000000e+02  3.595159420289855188e+04  1.909780924609993349e+02
1.016250000000000000e+02  3.483260869565217581e+04  1.879825234204796800e+02
1.017500000000000000e+02  3.501478873239436507e+04  1.857999534281694309e+02
1.018750000000000000e+02  3.445676056338028138e+04  1.843134668888090744e+02
1.020000000000000000e+02  3.404333333333332848e+04  1.782520063779866177e+02
1.021250000000000000e+02  3.611556962025316170e+04  1.788886179671557670e+02
1.022500000000000000e+02  3.367546875000000000e+04  1.919180657085530868e+02
1.023750000000000000e+02  3.595941176470588834e+04  1.923981328456473250e+02
1.025000000000000000e+02  4.511705882352941262e+04  2.155087727724059903e+02
1.026250000000000000e+02  1.051132352941176396e+04  1.040215367306512491e+02
1.027500000000000000e+02  4.322705882352941262e+04  2.109465403996339319e+02
1.028750000000000000e+02  3.550014492753623199e+04  1.897752349005488384e+02
1.030000000000000000e+02  3.401492753623188764e+04  1.857630143503412796e+02
1.031250000000000000e+02  3.402500000000000000e+04  1.844586674569671629e+02
1.032500000000000000e+02  3.438380281690140691e+04  1.841182334913826537e+02
1.033750000000000000e+02  3.422232876712329016e+04  1.811516814564573110e+02
1.035000000000000000e+02  3.442250000000000000e+04  1.735502448860271727e+02
1.036250000000000000e+02  3.288641791044775891e+04  1.853616575388298600e+02
1.037500000000000000e+02  3.437000000000000000e+04  1.894965836733754543e+02
1.038750000000000000e+02  3.299264705882353155e+04  1.842905831320251195e+02
1.040000000000000000e+02  3.412602941176470631e+04  1.874292830887680452e+02
1.041250000000000000e+02  3.259529411764705583e+04  1.831774528667606887e+02
1.042500000000000000e+02  3.457176470588234952e+04  1.886493607592638853e+02
1.043750000000000000e+02  3.318913043478260806e+04  1.834942296780521929e+02
1.045000000000000000e+02  3.412100000000000000e+04  1.847187050625896916e+02
1.046250000000000000e+02  3.343500000000000000e+04  1.828523994920493294e+02
1.047500000000000000e+02  3.314452054794520518e+04  1.782762377990490279e+02
1.048750000000000000e+02  3.424536585365853534e+04  1.709790890707533322e+02
1.050000000000000000e+02  3.203838235294117476e+04  1.816058581551348823e+02
1.051250000000000000e+02  3.488716417910447490e+04  1.909169348382159797e+02
1.052500000000000000e+02  3.190328358208955251e+04  1.825699559541724852e+02
1.053750000000000000e+02  3.387382352941176941e+04  1.867354076139482402e+02
1.055000000000000000e+02  3.287941176470588107e+04  1.839740560165949717e+02
1.056250000000000000e+02  3.376161764705882524e+04  1.864258737444566236e+02
1.057500000000000000e+02  3.260250000000000000e+04  1.831976993819068866e+02
1.058750000000000000e+02  3.323884057971014408e+04  1.836315956118453983e+02
1.060000000000000000e+02  3.382971830985915585e+04  1.826287036697312089e+02
1.061250000000000000e+02  3.269863013698630311e+04  1.770730098470352232e+02
1.062500000000000000e+02  3.359166666666667152e+04  1.673112535233525762e+02
1.063750000000000000e+02  3.163373134328357992e+04  1.817970491374169910e+02
1.065000000000000000e+02  3.530820895522388309e+04  1.920655448936860523e+02
1.066250000000000000e+02  3.232014925373134247e+04  1.837588640469860763e+02
1.067500000000000000e+02  3.350220588235294417e+04  1.857082789724053669e+02
1.068750000000000000e+02  3.213522388059701552e+04  1.832324057095694911e+02
1.070000000000000000e+02  3.414558823529411893e+04  1.874829865406846068e+02
1.071250000000000000e+02  3.263544117647059102e+04  1.832902263990789038e+02
1.072500000000000000e+02  3.250333333333333212e+04  1.815885352528228793e+02
1.073750000000000000e+02  3.291166666666667152e+04  1.788783209438854840e+02
1.075000000000000000e+02  3.282136986301369325e+04  1.774050350017883204e+02
1.076250000000000000e+02  3.405166666666666424e+04  1.684529278133475714e+02
1.077500000000000000e+02  3.169014925373134247e+04  1.819590919976653254e+02
1.078750000000000000e+02  3.397194029850746301e+04  1.883960507910516355e+02
1.080000000000000000e+02  3.194716417910447490e+04  1.826954685178995419e+02
1.081250000000000000e+02  3.381731343283582100e+04  1.879668095622007513e+02
1.082500000000000000e+02  3.215779411764705583e+04  1.819439792675083538e+02
1.083750000000000000e+02  3.274119402985074703e+04  1.849519333316839322e+02
1.085000000000000000e+02  3.221029411764705583e+04  1.820924372656441790e+02
1.086250000000000000e+02  3.267700000000000000e+04  1.807678068683691208e+02
1.087500000000000000e+02  3.283777777777777374e+04  1.786774112302688877e+02
1.088750000000000000e+02  3.248383561643835492e+04  1.764904628239656574e+02
1.090000000000000000e+02  3.261025316455696520e+04  1.699857671450346004e+02
1.091250000000000000e+02  3.256361111111111313e+04  1.779299478953014670e+02
1.092500000000000000e+02  3.331164179104477807e+04  1.865561787810579801e+02
1.093750000000000000e+02  3.168454545454545223e+04  1.833161775093489041e+02
1.095000000000000000e+02  3.334058823529411893e+04  1.852598007437833303e+02
1.096250000000000000e+02  3.304731343283582100e+04  1.858145416404549337e+02
1.097500000000000000e+02  3.218746268656716347e+04  1.833812759228706852e+02
1.098750000000000000e+02  3.121086956521739194e+04  1.779415662744136739e+02
1.100000000000000000e+02  3.243464788732394300e+04  1.788234376717490477e+02
1.101250000000000000e+02  3.244352112676056277e+04  1.788478966188174297e+02
1.102500000000000000e+02  3.263534246575342331e+04  1.769015658728229425e+02
1.103750000000000000e+02  3.292181818181818380e+04  1.729997850282904892e+02
1.105000000000000000e+02  3.211561643835616269e+04  1.754873117485281000e+02
1.106250000000000000e+02  3.338686567164178996e+04  1.867666992679547491e+02
1.107500000000000000e+02  3.168597014925373151e+04  1.819470937719427752e+02
1.108750000000000000e+02  3.373791044776119088e+04  1.877460070264541514e+02
1.110000000000000000e+02  3.227104477611940092e+04  1.836192172139778904e+02
1.111250000000000000e+02  3.333029411764705583e+04  1.852311984677882322e+02
1.112500000000000000e+02  3.310500000000000000e+04  1.819477947104608404e+02
1.113750000000000000e+02  3.306900000000000000e+04  1.818488383245820899e+02
1.115000000000000000e+02  3.382750000000000000e+04  1.813500681616145016e+02
1.116250000000000000e+02  3.324014084507042571e+04  1.810303009091365709e+02
1.117500000000000000e+02  3.414226666666667006e+04  1.785108275583180273e+02
1.118750000000000000e+02  3.343697368421052670e+04  1.754913462364401653e+02
1.120000000000000000e+02  3.479424242424242402e+04  1.921014950211164489e+02
1.121250000000000000e+02  3.524343283582089498e+04  1.918892831625797157e+02
1.122500000000000000e+02  3.153865671641791050e+04  1.815236496310108976e+02
1.123750000000000000e+02  3.324794117647058738e+04  1.850022210658779329e+02
1.125000000000000000e+02  3.594652173913043225e+04  1.909646192945338044e+02
1.126250000000000000e+02  3.444800000000000000e+04  1.856017241299228999e+02
1.127500000000000000e+02  3.426449275362318440e+04  1.864432342701793175e+02
1.128750000000000000e+02  3.479295774647887447e+04  1.852104643050110155e+02
1.130000000000000000e+02  3.535875000000000000e+04  1.854091758786495063e+02
1.131250000000000000e+02  3.575013513513513317e+04  1.838958819498164132e+02
1.132500000000000000e+02  3.441513157894736651e+04  1.780397357527953943e+02
1.133750000000000000e+02  3.676567164179105021e+04  1.959895296824675484e+02
1.135000000000000000e+02  3.415893939393939218e+04  1.903396389223412086e+02
1.136250000000000000e+02  3.574941176470588107e+04  1.918355156166425672e+02
1.137500000000000000e+02  3.541188405797101586e+04  1.895391773986478370e+02
1.138750000000000000e+02  3.639188405797101586e+04  1.921439633907524467e+02
1.140000000000000000e+02  3.468652173913043953e+04  1.875879125976431965e+02
1.141250000000000000e+02  3.613500000000000000e+04  1.900920829492906705e+02
1.142500000000000000e+02  3.513700000000000000e+04  1.874486596377792296e+02
1.143750000000000000e+02  3.590507042253520922e+04  1.881471902668663176e+02
1.145000000000000000e+02  3.567698630136986321e+04  1.849616413804102422e+02
1.146250000000000000e+02  3.495602564102564065e+04  1.771180178354141503e+02
1.147500000000000000e+02  3.675848484848484804e+04  1.974494158233928260e+02
1.148750000000000000e+02  3.441701492537313607e+04  1.896261461274946782e+02
1.150000000000000000e+02  3.601753623188406345e+04  1.911531572080540116e+02
1.151250000000000000e+02  3.528710144927536021e+04  1.892049384045145928e+02
1.152500000000000000e+02  3.569691176470588107e+04  1.916946032997696250e+02
1.153750000000000000e+02  3.522014492753623199e+04  1.890253470054849743e+02
1.155000000000000000e+02  3.604492753623188037e+04  1.912258292971432638e+02
1.156250000000000000e+02  3.498800000000000000e+04  1.870507952402234650e+02
1.157500000000000000e+02  3.571478873239436507e+04  1.876479777108731639e+02
1.158750000000000000e+02  3.550986486486486683e+04  1.832768744550367614e+02
1.160000000000000000e+02  3.505454545454545587e+04  1.785154575801247461e+02
1.161250000000000000e+02  3.620149253731343197e+04  1.944799601237372997e+02
1.162500000000000000e+02  3.403338235294117476e+04  1.871746889588739577e+02
1.163750000000000000e+02  3.626000000000000000e+04  1.932005967595216873e+02
1.165000000000000000e+02  3.455735294117646845e+04  1.886100359862658138e+02
1.166250000000000000e+02  3.561579710144927958e+04  1.900841078942004856e+02
1.167500000000000000e+02  3.499695652173912822e+04  1.884254727741717375e+02
1.168750000000000000e+02  3.586400000000000000e+04  1.893779290202530490e+02
1.170000000000000000e+02  3.948811594202898414e+04  2.001509617199495494e+02
1.171250000000000000e+02  4.027563380281690479e+04  1.992695946573131778e+02
1.172500000000000000e+02  3.056083333333333212e+04  1.723714631146823706e+02
1.173750000000000000e+02  4.010556962025316170e+04  1.885114868547105118e+02
1.175000000000000000e+02  2.231970588235294417e+04  1.515789161462411414e+02
1.176250000000000000e+02  3.079582089552238540e+04  1.793731815212442484e+02
1.177500000000000000e+02  4.100072463768115995e+04  2.039483710114578514e+02
1.178750000000000000e+02  3.590897058823529369e+04  1.922631446273750271e+02
1.180000000000000000e+02  3.673558823529411166e+04  1.944634842658198863e+02
1.181250000000000000e+02  3.619913043478261534e+04  1.916344319623891863e+02
1.182500000000000000e+02  3.661000000000000000e+04  1.927189137322668842e+02
1.183750000000000000e+02  3.651800000000000000e+04  1.910968340920382786e+02
1.185000000000000000e+02  3.625200000000000000e+04  1.903995798314691683e+02
1.186250000000000000e+02  3.595219178082191502e+04  1.856736503851946338e+02
1.187500000000000000e+02  3.601325000000000000e+04  1.775150521786814579e+02
1.188750000000000000e+02  3.732567164179105021e+04  1.974765058735355012e+02
1.190000000000000000e+02  3.575661764705882524e+04  1.918548484453085905e+02
1.191250000000000000e+02  3.641852941176470631e+04  1.936224744954928667e+02
1.192500000000000000e+02  3.519147058823529369e+04  1.903326399775678226e+02
1.193750000000000000e+02  3.671753623188406345e+04  1.930017472411668393e+02
1.195000000000000000e+02  3.574426470588234952e+04  1.918217052603707486e+02
1.196250000000000000e+02  3.582044117647058738e+04  1.920259971045947793e+02
1.197500000000000000e+02  3.471700000000000000e+04  1.863249849054066090e+02
1.198750000000000000e+02  3.536676056338028138e+04  1.867314573797453647e+02
1.200000000000000000e+02  3.520808219178082072e+04  1.837421418848908559e+02
1.201250000000000000e+02  3.503948717948717967e+04  1.773293366102086850e+02
1.202500000000000000e+02  3.518700000000000000e+04  1.875819820771707214e+02
1.203750000000000000e+02  3.342552238805970410e+04  1.868747911560427895e+02
1.205000000000000000e+02  3.489911764705882524e+04  1.895403974980980877e+02
1.206250000000000000e+02  3.289794117647058738e+04  1.840258886180444335e+02
1.207500000000000000e+02  3.431544117647058738e+04  1.879487133718437804e+02
1.208750000000000000e+02  3.317391304347826372e+04  1.834521583190954459e+02
1.210000000000000000e+02  3.432779411764705583e+04  1.879825394048799865e+02
1.211250000000000000e+02  3.337521126760563493e+04  1.813977339149261354e+02
1.212500000000000000e+02  3.384450704225352092e+04  1.826686175687419791e+02
1.213750000000000000e+02  3.276000000000000000e+04  1.784656829757474554e+02
1.215000000000000000e+02  3.304000000000000000e+04  1.733100217424359926e+02
1.216250000000000000e+02  3.416788732394366525e+04  1.835392314310775816e+02
1.217500000000000000e+02  3.216500000000000000e+04  1.819643630268429888e+02
1.218750000000000000e+02  3.284358208955224109e+04  1.852408978676571110e+02
1.220000000000000000e+02  3.198279411764705583e+04  1.814482420219936216e+02
1.221250000000000000e+02  3.297720588235294417e+04  1.842474523634509751e+02
1.222500000000000000e+02  3.228029411764705583e+04  1.822901931889699085e+02
1.223750000000000000e+02  3.258647887323943723e+04  1.792414973773290399e+02
1.225000000000000000e+02  3.197579710144927594e+04  1.801088960899645031e+02
1.226250000000000000e+02  3.253619718309859309e+04  1.791031571043489237e+02
1.227500000000000000e+02  3.238123287671232902e+04  1.762115129015105595e+02
1.228750000000000000e+02  3.188972972972973002e+04  1.736835068598907981e+02
1.230000000000000000e+02  3.318567567567567312e+04  1.771774685700255816e+02
1.231250000000000000e+02  3.162955223880597259e+04  1.817850402164977481e+02
1.232500000000000000e+02  3.286761194029850594e+04  1.853086507884299863e+02
1.233750000000000000e+02  3.160705882352940898e+04  1.803792621137253889e+02
1.235000000000000000e+02  3.247691176470588107e+04  1.828445105872831675e+02
1.236250000000000000e+02  3.204000000000000000e+04  1.789972066821155749e+02
1.237500000000000000e+02  3.223449275362318804e+04  1.808360011592545220e+02
1.238750000000000000e+02  3.189971014492753602e+04  1.798944823631594829e+02
1.240000000000000000e+02  3.205902777777777737e+04  1.765460258074224384e+02
1.241250000000000000e+02  3.267126760563380230e+04  1.794745355390644477e+02
1.242500000000000000e+02  3.145589041095890570e+04  1.736755094590224644e+02
1.243750000000000000e+02  3.168106666666666570e+04  1.719563768970361650e+02
1.245000000000000000e+02  2.969880597014925297e+04  1.761493776667824136e+02
1.246250000000000000e+02  3.273117647058823422e+04  1.835588682997579895e+02
1.247500000000000000e+02  3.073411764705882524e+04  1.778709146649249817e+02
1.248750000000000000e+02  3.248200000000000000e+04  1.802276338412064831e+02
1.250000000000000000e+02  3.140117647058823422e+04  1.797908242498183711e+02
1.251250000000000000e+02  3.123281690140845240e+04  1.754791100724275736e+02
1.252500000000000000e+02  3.094608695652173992e+04  1.771851601302557810e+02
1.253750000000000000e+02  3.134000000000000000e+04  1.770310707192384427e+02
1.255000000000000000e+02  3.106619718309859309e+04  1.750104142903992965e+02
1.256250000000000000e+02  3.092561643835616269e+04  1.722054026281235224e+02
1.257500000000000000e+02  3.196946666666666715e+04  1.727372828572016488e+02
1.258750000000000000e+02  3.044582089552238540e+04  1.783509646939488675e+02
1.260000000000000000e+02  3.134985507246376801e+04  1.783373230654526935e+02
1.261250000000000000e+02  2.980867647058823422e+04  1.751724928438679001e+02
1.262500000000000000e+02  3.119100000000000000e+04  1.766097392557952901e+02
1.263750000000000000e+02  3.045102941176470631e+04  1.770498458736280156e+02
1.265000000000000000e+02  3.100100000000000000e+04  1.760710084028600022e+02
1.266250000000000000e+02  3.048753623188405982e+04  1.758675199775978797e+02
1.267500000000000000e+02  3.042100000000000000e+04  1.744161689752415043e+02
1.268750000000000000e+02  3.052197183098591267e+04  1.734707033011307544e+02
1.270000000000000000e+02  3.006597222222222263e+04  1.709701913409483609e+02
1.271250000000000000e+02  3.081473684210526335e+04  1.684695653815068113e+02
1.272500000000000000e+02  2.988000000000000000e+04  1.728583234906552093e+02
1.273750000000000000e+02  3.089402985074626849e+04  1.796589675473580883e+02
1.275000000000000000e+02  2.993426470588235316e+04  1.755411184197462262e+02
1.276250000000000000e+02  3.090600000000000000e+04  1.758010238878033249e+02
1.277500000000000000e+02  2.999191176470588107e+04  1.757100646423220383e+02
1.278750000000000000e+02  3.091057971014492796e+04  1.770834806700895570e+02
1.280000000000000000e+02  2.954507246376811599e+04  1.731278773616911053e+02
1.281250000000000000e+02  3.013943661971830807e+04  1.723802120673899196e+02
1.282500000000000000e+02  2.983200000000000000e+04  1.727194256590728685e+02
1.283750000000000000e+02  2.996191780821917928e+04  1.695010504907578479e+02
1.285000000000000000e+02  3.075486842105263349e+04  1.683058302408885538e+02
1.286250000000000000e+02  2.907739130434782419e+04  1.717521550738935900e+02
1.287500000000000000e+02  3.103367647058823422e+04  1.787356474263029043e+02
1.288750000000000000e+02  2.906441176470588107e+04  1.729718110122117025e+02
1.290000000000000000e+02  3.024000000000000000e+04  1.751521078079427980e+02
1.291250000000000000e+02  2.946382352941176578e+04  1.741562705572052323e+02
1.292500000000000000e+02  3.051800000000000000e+04  1.746940182147059204e+02
1.293750000000000000e+02  2.964449275362318804e+04  1.734189236599796118e+02
1.295000000000000000e+02  2.985550724637681196e+04  1.740350417507746101e+02
1.296250000000000000e+02  3.003097222222222263e+04  1.708706485894599609e+02
1.297500000000000000e+02  2.961194444444444525e+04  1.696743658662049086e+02
1.298750000000000000e+02  3.047423076923076951e+04  1.653743288393130797e+02
1.300000000000000000e+02  2.903970588235294417e+04  1.728982789934380548e+02
1.301250000000000000e+02  3.070220588235294417e+04  1.777785474620497155e+02
1.302500000000000000e+02  2.924764705882352791e+04  1.735162008929377748e+02
1.303750000000000000e+02  3.008884057971014408e+04  1.747137966304873089e+02
1.305000000000000000e+02  2.906217391304347620e+04  1.717072067192273437e+02
1.306250000000000000e+02  2.976544117647059102e+04  1.750454093334633114e+02
1.307500000000000000e+02  2.924000000000000000e+04  1.709970759983924324e+02
1.308750000000000000e+02  2.931200000000000000e+04  1.712074764722615612e+02
1.310000000000000000e+02  2.892458333333333212e+04  1.676935379947157969e+02
1.311250000000000000e+02  2.873154929577465009e+04  1.683059107321648753e+02
1.312500000000000000e+02  2.833670886075949238e+04  1.584565435876229742e+02
1.313750000000000000e+02  2.710776119402984841e+04  1.682900518331411490e+02
1.315000000000000000e+02  2.871544117647059102e+04  1.719302561382915826e+02
1.316250000000000000e+02  2.698397058823529369e+04  1.666661836786542494e+02
1.317500000000000000e+02  2.791483333333333576e+04  1.804641392508648892e+02
1.318750000000000000e+02  2.889600000000000000e+04  2.120125782432102142e+02
1.320000000000000000e+02  7.291199999999999818e+03  1.428823292083384331e+02
