# DMC at SINQ, PSI: Sample name = Unknown, wavelength = 2.450 AA, T = 0.0 K
# Filelist='dmc:2022:578'
#   0.000   0.250 132.000     280., sample="Unknown"
0.000000000000000000e+00  2.380000000000000000e+04  1.825376673456741855e+03
2.500000000000000000e-01  2.016000000000000000e+04  5.600000000000000000e+02
5.000000000000000000e-01  1.985529411764705583e+04  4.043688747309949463e+02
7.500000000000000000e-01  2.023000000000000000e+04  3.435234101678273078e+02
1.000000000000000000e+00  2.002451612903225760e+04  3.007212972957560169e+02
1.250000000000000000e+00  1.968842105263157646e+04  2.693256172157462629e+02
1.500000000000000000e+00  1.943914893617021153e+04  2.406321838303744016e+02
1.750000000000000000e+00  1.954750000000000000e+04  2.210627738901328598e+02
2.000000000000000000e+00  1.934610169491525085e+04  2.142568645850881524e+02
2.250000000000000000e+00  1.926521739130434798e+04  1.977089954476208788e+02
2.500000000000000000e+00  1.912657894736842354e+04  1.877050125733256607e+02
2.750000000000000000e+00  1.932651162790697708e+04  1.773746405639695922e+02
3.000000000000000000e+00  1.913333333333333212e+04  1.670412457382241200e+02
3.250000000000000000e+00  1.943620000000000073e+04  1.649566003529413081e+02
3.500000000000000000e+00  1.915886792452830196e+04  1.590728298086737027e+02
3.750000000000000000e+00  1.946247787610619707e+04  1.552829818372675277e+02
4.000000000000000000e+00  1.921725806451613244e+04  1.472986906472327746e+02
4.250000000000000000e+00  1.912870229007633679e+04  1.429786275762675700e+02
4.500000000000000000e+00  1.946300000000000000e+04  1.395098562826297268e+02
4.750000000000000000e+00  1.926150684931506839e+04  1.359041503217825948e+02
5.000000000000000000e+00  1.912000000000000000e+04  1.318401235656967287e+02
5.250000000000000000e+00  1.906450000000000000e+04  1.291566393957352830e+02
5.500000000000000000e+00  1.949047058823529369e+04  1.266924456254070037e+02
5.750000000000000000e+00  1.942261363636363603e+04  1.242972497750971712e+02
6.000000000000000000e+00  1.940627027027027361e+04  1.211850904627908392e+02
6.250000000000000000e+00  1.958541666666666788e+04  1.195032760476093046e+02
6.500000000000000000e+00  1.943678391959799046e+04  1.169363901461845927e+02
6.750000000000000000e+00  1.958173913043478387e+04  1.150812247969978301e+02
7.000000000000000000e+00  1.953065420560747589e+04  1.130356735681065743e+02
7.250000000000000000e+00  2.004009569377990556e+04  1.158619331190044619e+02
7.500000000000000000e+00  2.046559139784946456e+04  1.241136921496837857e+02
7.750000000000000000e+00  2.106960893854748792e+04  1.283706498808012668e+02
8.000000000000000000e+00  2.230282352941176578e+04  1.355250203536915592e+02
8.250000000000000000e+00  2.296248520710058801e+04  1.379209088377811554e+02
8.500000000000000000e+00  2.393267441860465260e+04  1.395710708889804721e+02
8.750000000000000000e+00  2.418670731707316736e+04  1.436912981815922308e+02
9.000000000000000000e+00  2.537197530864197688e+04  1.480756509858247512e+02
9.250000000000000000e+00  2.561202531645569616e+04  1.506459413575168185e+02
9.500000000000000000e+00  2.609961290322580680e+04  1.535377605431023937e+02
9.750000000000000000e+00  2.655746835443038071e+04  1.534012189812659699e+02
1.000000000000000000e+01  2.695448717948717967e+04  1.555311042584327197e+02
1.025000000000000000e+01  2.710884615384615245e+04  1.559758047792304012e+02
1.050000000000000000e+01  2.770818181818181984e+04  1.587112352618651414e+02
1.075000000000000000e+01  2.772545454545454777e+04  1.587606962622863875e+02
1.100000000000000000e+01  2.793840000000000146e+04  1.614801535793176015e+02
1.125000000000000000e+01  2.775522580645161361e+04  1.583326757567081700e+02
1.150000000000000000e+01  2.758368421052631311e+04  1.593926752732004672e+02
1.175000000000000000e+01  2.780400000000000000e+04  1.610912784727962901e+02
1.200000000000000000e+01  2.787047619047619082e+04  1.629211792788045443e+02
1.225000000000000000e+01  2.783760000000000218e+04  1.611885852037916607e+02
1.250000000000000000e+01  2.810594594594594309e+04  1.630543026863855971e+02
1.275000000000000000e+01  2.772662162162161985e+04  1.619502556890546714e+02
1.300000000000000000e+01  2.826496644295302031e+04  1.629652925953686520e+02
1.325000000000000000e+01  2.818666666666666788e+04  1.638427430325934608e+02
1.350000000000000000e+01  2.821714285714285506e+04  1.639312947174977353e+02
1.375000000000000000e+01  2.885641379310344928e+04  1.669172400970526553e+02
1.400000000000000000e+01  3.064986842105263349e+04  1.680182786685990663e+02
1.425000000000000000e+01  3.337770270270269975e+04  1.776893428335268936e+02
1.450000000000000000e+01  3.758265734265733772e+04  1.918181690711762997e+02
1.475000000000000000e+01  3.481944827586206520e+04  1.833542408717614762e+02
1.500000000000000000e+01  3.323833333333332848e+04  1.797638625983996121e+02
1.525000000000000000e+01  3.176666666666666424e+04  1.739366788632238467e+02
1.550000000000000000e+01  2.980551724137931160e+04  1.696400329662194508e+02
1.575000000000000000e+01  2.887619047619047706e+04  1.658346579785060442e+02
1.600000000000000000e+01  2.815555555555555475e+04  1.654492574480872804e+02
1.625000000000000000e+01  2.766615384615384755e+04  1.645774742308514362e+02
1.650000000000000000e+01  2.835194444444444525e+04  1.660252704623569286e+02
1.675000000000000000e+01  2.797256756756757022e+04  1.626669508174281589e+02
1.700000000000000000e+01  2.823366197183098484e+04  1.668412561717279061e+02
1.725000000000000000e+01  2.814000000000000000e+04  1.654035469188412719e+02
1.750000000000000000e+01  2.824208333333333212e+04  1.657032921173219222e+02
1.775000000000000000e+01  2.800293706293706055e+04  1.655761542578504759e+02
1.800000000000000000e+01  2.757416666666666788e+04  1.637321519818040940e+02
1.825000000000000000e+01  2.758383561643835492e+04  1.626353385056006289e+02
1.850000000000000000e+01  2.798028169014084415e+04  1.660909185224520854e+02
1.875000000000000000e+01  2.751645390070922076e+04  1.652915658628262747e+02
1.900000000000000000e+01  2.792363636363636397e+04  1.653415429060497104e+02
1.925000000000000000e+01  2.789872340425532093e+04  1.664357537240731233e+02
1.950000000000000000e+01  2.784380952380952294e+04  1.628432185637447844e+02
1.975000000000000000e+01  2.755277777777777737e+04  1.636686373118141660e+02
2.000000000000000000e+01  2.786685314685314370e+04  1.651733448534176034e+02
2.025000000000000000e+01  2.728700000000000000e+04  1.651877719445358821e+02
2.050000000000000000e+01  2.761078014184397398e+04  1.655746327372831956e+02
2.075000000000000000e+01  2.746545454545454777e+04  1.639794383401379605e+02
2.100000000000000000e+01  2.747333333333333212e+04  1.617562343932355589e+02
2.125000000000000000e+01  2.740253521126760461e+04  1.643672230437349242e+02
2.150000000000000000e+01  2.760700000000000000e+04  1.661535434470177108e+02
2.175000000000000000e+01  2.710847222222222263e+04  1.623436451017971649e+02
2.200000000000000000e+01  2.702805755395683445e+04  1.649924362241480083e+02
2.225000000000000000e+01  2.725238095238095048e+04  1.611044646373187845e+02
2.250000000000000000e+01  2.726822695035461220e+04  1.645443261551599221e+02
2.275000000000000000e+01  2.726597222222222263e+04  1.628145696949086698e+02
2.300000000000000000e+01  2.757700000000000000e+04  1.660632409656032280e+02
2.325000000000000000e+01  2.719144927536231626e+04  1.660889166993618744e+02
2.350000000000000000e+01  2.701007092198581449e+04  1.637635800027132404e+02
2.375000000000000000e+01  2.714959459459459322e+04  1.602561978234624291e+02
2.400000000000000000e+01  2.715704225352112553e+04  1.636293026956194012e+02
2.425000000000000000e+01  2.698425531914893509e+04  1.636853005674303461e+02
2.450000000000000000e+01  2.704100000000000000e+04  1.644414789522400326e+02
2.475000000000000000e+01  2.691652173913043589e+04  1.652471369104132179e+02
2.500000000000000000e+01  2.721117241379310144e+04  1.620890376418538210e+02
2.525000000000000000e+01  2.695388888888888687e+04  1.618801091953128832e+02
2.550000000000000000e+01  2.687901408450704184e+04  1.627895464129836967e+02
2.575000000000000000e+01  2.697333333333333212e+04  1.654214351519459854e+02
2.600000000000000000e+01  2.704000000000000000e+04  1.644384383287557228e+02
2.625000000000000000e+01  2.674705035971222969e+04  1.641324927686287936e+02
2.650000000000000000e+01  2.728108108108108354e+04  1.606437924405150852e+02
2.675000000000000000e+01  2.695985915492957793e+04  1.630341768734513153e+02
2.700000000000000000e+01  2.715500000000000000e+04  1.647877422625845725e+02
2.725000000000000000e+01  2.718300000000000000e+04  1.648726781489280029e+02
2.750000000000000000e+01  2.772705035971222969e+04  1.671123141547510045e+02
2.775000000000000000e+01  2.835000000000000000e+04  1.660195771588399225e+02
2.800000000000000000e+01  3.068839160839160832e+04  1.733337220422695282e+02
2.825000000000000000e+01  3.811034965034964989e+04  1.931601196559919913e+02
2.850000000000000000e+01  5.480898550724637607e+04  2.358035594102425705e+02
2.875000000000000000e+01  7.271841726618705434e+04  2.706318003251627147e+02
2.900000000000000000e+01  7.613079136690647283e+04  2.769088205563704719e+02
2.925000000000000000e+01  6.506310810810811381e+04  2.480850324898857195e+02
2.950000000000000000e+01  4.321134751773049356e+04  2.071349416688501321e+02
2.975000000000000000e+01  3.302589928057554062e+04  1.823828272570571016e+02
3.000000000000000000e+01  2.788600000000000000e+04  1.669910177225110601e+02
3.025000000000000000e+01  2.731913669064748319e+04  1.658785014472302066e+02
3.050000000000000000e+01  2.673605633802816737e+04  1.623560659915518158e+02
3.075000000000000000e+01  2.651986206896551812e+04  1.600168243235298178e+02
3.100000000000000000e+01  2.634978723404255288e+04  1.617495264611209222e+02
3.125000000000000000e+01  2.636431654676258768e+04  1.629539440726294117e+02
3.150000000000000000e+01  2.632710144927536021e+04  1.634278239596685012e+02
3.175000000000000000e+01  2.629159420289855188e+04  1.633175795805277062e+02
3.200000000000000000e+01  2.648666666666666788e+04  1.588250510007688376e+02
3.225000000000000000e+01  2.768549295774647908e+04  1.652136690386568318e+02
3.250000000000000000e+01  3.036287769784172633e+04  1.748751430789720587e+02
3.275000000000000000e+01  3.391625899280575686e+04  1.848249465198444454e+02
3.300000000000000000e+01  3.517300000000000000e+04  1.875446613476374011e+02
3.325000000000000000e+01  3.394900000000000000e+04  1.842525440801293257e+02
3.350000000000000000e+01  2.979333333333333212e+04  1.684476273938079771e+02
3.375000000000000000e+01  2.747021582733812829e+04  1.663365362129840719e+02
3.400000000000000000e+01  2.630892086330935126e+04  1.627826577841620406e+02
3.425000000000000000e+01  2.522400000000000000e+04  1.588206535687345706e+02
3.450000000000000000e+01  2.544347826086956411e+04  1.606618321899177602e+02
3.475000000000000000e+01  2.554069930069929978e+04  1.581293155434850348e+02
3.500000000000000000e+01  2.526125000000000000e+04  1.567148640401130422e+02
3.525000000000000000e+01  2.532992805755395966e+04  1.597252571004653134e+02
3.550000000000000000e+01  2.537574468085106491e+04  1.587317701672210433e+02
3.575000000000000000e+01  2.533489051094890601e+04  1.609026697580753478e+02
3.600000000000000000e+01  2.501197080291970997e+04  1.598739446963284081e+02
3.625000000000000000e+01  2.537288590604026831e+04  1.544030293815036430e+02
3.650000000000000000e+01  2.510732394366196968e+04  1.573330850862758723e+02
3.675000000000000000e+01  2.526744525547444937e+04  1.606883535804547876e+02
3.700000000000000000e+01  2.522500000000000000e+04  1.588238017426859017e+02
3.725000000000000000e+01  2.497927007299270190e+04  1.597694006637682094e+02
3.750000000000000000e+01  2.446234482758620652e+04  1.536841426289663843e+02
3.775000000000000000e+01  2.503140845070422438e+04  1.570950457592560667e+02
3.800000000000000000e+01  2.481800000000000000e+04  1.575372971711778405e+02
3.825000000000000000e+01  2.479124087591241187e+04  1.591669399206572564e+02
3.850000000000000000e+01  2.465787234042553246e+04  1.564704247236149968e+02
3.875000000000000000e+01  2.441681159420289987e+04  1.573870338652504302e+02
3.900000000000000000e+01  2.479917808219178187e+04  1.542077617289226339e+02
3.925000000000000000e+01  2.484802816901408733e+04  1.565185482340079943e+02
3.950000000000000000e+01  2.474043478260869233e+04  1.584266133212586283e+02
3.975000000000000000e+01  2.449496402877697619e+04  1.570706426789358261e+02
4.000000000000000000e+01  2.517343065693430617e+04  1.603891320009571757e+02
4.025000000000000000e+01  2.527680555555555475e+04  1.567631081214621247e+02
4.050000000000000000e+01  2.561611111111111313e+04  1.578117627717775804e+02
4.075000000000000000e+01  2.541251798561151008e+04  1.599854426377962113e+02
4.100000000000000000e+01  2.483438848920863529e+04  1.581551553209651786e+02
4.125000000000000000e+01  2.460347826086956411e+04  1.579875008017337166e+02
4.150000000000000000e+01  2.436514705882352791e+04  1.583722482985635907e+02
4.175000000000000000e+01  2.451523809523809541e+04  1.528000189953805545e+02
4.200000000000000000e+01  2.459104895104894968e+04  1.551616989440653072e+02
4.225000000000000000e+01  2.482500000000000000e+04  1.575595125658873030e+02
4.250000000000000000e+01  2.468117647058823422e+04  1.593960270069663352e+02
4.275000000000000000e+01  2.521927536231884005e+04  1.599524057546502434e+02
4.300000000000000000e+01  2.502154929577465009e+04  1.570641050925074467e+02
4.325000000000000000e+01  2.553561643835616269e+04  1.564806938367452176e+02
4.350000000000000000e+01  2.596300000000000000e+04  1.611303819892449951e+02
4.375000000000000000e+01  2.871410071942445938e+04  1.700608037838024984e+02
4.400000000000000000e+01  2.389912408759124082e+04  1.562768779162839508e+02
4.425000000000000000e+01  2.575691176470588107e+04  1.628326379847713099e+02
4.450000000000000000e+01  2.687047619047618718e+04  1.599716528176646193e+02
4.475000000000000000e+01  2.621154929577465009e+04  1.607556299018169170e+02
4.500000000000000000e+01  2.632302158273381428e+04  1.628262750256379832e+02
4.525000000000000000e+01  2.552935251798561148e+04  1.603527889517042979e+02
4.550000000000000000e+01  2.568695652173913186e+04  1.614287188016378138e+02
4.575000000000000000e+01  2.577309352517985462e+04  1.611164531145404908e+02
4.600000000000000000e+01  2.584285714285714494e+04  1.568829018661982104e+02
4.625000000000000000e+01  2.596446043165467563e+04  1.617134969970629754e+02
4.650000000000000000e+01  2.735640287769784118e+04  1.659916007859862361e+02
4.675000000000000000e+01  3.103333333333333212e+04  1.774347536066133841e+02
4.700000000000000000e+01  3.759926470588234952e+04  1.967361823166393151e+02
4.725000000000000000e+01  4.471465753424657305e+04  2.070677880995873750e+02
4.750000000000000000e+01  4.756475524475524435e+04  2.157936357880220726e+02
4.775000000000000000e+01  4.431800000000000000e+04  2.105184077462111247e+02
4.800000000000000000e+01  3.748934306569342880e+04  1.957301141505316480e+02
4.825000000000000000e+01  3.061299270072992658e+04  1.768709987678179800e+02
4.850000000000000000e+01  2.667466666666666788e+04  1.663208263686499890e+02
4.875000000000000000e+01  2.497786666666666497e+04  1.526848897420944979e+02
4.900000000000000000e+01  2.436098591549295816e+04  1.549770093846502164e+02
4.925000000000000000e+01  2.411956521739130767e+04  1.564260979938622143e+02
4.950000000000000000e+01  2.380306569343065712e+04  1.559624977634535981e+02
4.975000000000000000e+01  2.353226277372262848e+04  1.550727822603461732e+02
5.000000000000000000e+01  2.397739726027397410e+04  1.516312130470693376e+02
5.025000000000000000e+01  2.422097222222222263e+04  1.534541216073117198e+02
5.050000000000000000e+01  2.412869565217391573e+04  1.564557026557669701e+02
5.075000000000000000e+01  2.461362318840579974e+04  1.580200695008369962e+02
5.100000000000000000e+01  2.450102189781022025e+04  1.582325523572804400e+02
5.125000000000000000e+01  2.380919708029196772e+04  1.559825835131039469e+02
5.150000000000000000e+01  2.388550335570469906e+04  1.498090612441833684e+02
5.175000000000000000e+01  2.366800000000000000e+04  1.538440769090574918e+02
5.200000000000000000e+01  2.341928057553956751e+04  1.535830869870023321e+02
5.225000000000000000e+01  2.345000000000000000e+04  1.542396028018218317e+02
5.250000000000000000e+01  2.369525925925925912e+04  1.567573330152265783e+02
5.275000000000000000e+01  2.387287671232876892e+04  1.513003621514653787e+02
5.300000000000000000e+01  2.417594405594405544e+04  1.538465352824260322e+02
5.325000000000000000e+01  2.525338129496402689e+04  1.594837305090587165e+02
5.350000000000000000e+01  2.772405797101449207e+04  1.677076501314815005e+02
5.375000000000000000e+01  2.936347826086956411e+04  1.725950054805300624e+02
5.400000000000000000e+01  3.136926470588235316e+04  1.796994439012216276e+02
5.425000000000000000e+01  3.116380952380952294e+04  1.722783172488758225e+02
5.450000000000000000e+01  3.015126760563380230e+04  1.724140419592017395e+02
5.475000000000000000e+01  2.756100000000000364e+04  1.660150595578605817e+02
5.500000000000000000e+01  2.523652173913043589e+04  1.600070886898511446e+02
5.525000000000000000e+01  2.456176470588235316e+04  1.590099668265263517e+02
5.550000000000000000e+01  2.416141843971631170e+04  1.548872520969032962e+02
5.575000000000000000e+01  2.366675862068965580e+04  1.511643592115492254e+02
5.600000000000000000e+01  2.385063829787234135e+04  1.538878969729811388e+02
5.625000000000000000e+01  2.390246376811594018e+04  1.557205069555530201e+02
5.650000000000000000e+01  2.340573529411764684e+04  1.552228696853540271e+02
5.675000000000000000e+01  2.306888888888888687e+04  1.546715622894847399e+02
5.700000000000000000e+01  2.351716216216216344e+04  1.491508102809056027e+02
5.725000000000000000e+01  2.317194444444444525e+04  1.500942348026320872e+02
5.750000000000000000e+01  2.360800000000000000e+04  1.536489505333505292e+02
5.775000000000000000e+01  2.314117647058823422e+04  1.543431219975755369e+02
5.800000000000000000e+01  2.311970370370370438e+04  1.548418193708117485e+02
5.825000000000000000e+01  2.221500000000000000e+04  1.490469724617041720e+02
5.850000000000000000e+01  2.180783783783783656e+04  1.436281163023079444e+02
5.875000000000000000e+01  2.248141843971631170e+04  1.494054073845611867e+02
5.900000000000000000e+01  2.477797101449275215e+04  1.585467503409902861e+02
5.925000000000000000e+01  2.334191176470588107e+04  1.550110918009252714e+02
5.950000000000000000e+01  2.429466666666666788e+04  1.587276571231443256e+02
5.975000000000000000e+01  2.472608108108108354e+04  1.529363794451124079e+02
6.000000000000000000e+01  2.596611111111111313e+04  1.588862179262681877e+02
6.025000000000000000e+01  2.727768115942029181e+04  1.663520660282752885e+02
6.050000000000000000e+01  2.805007299270073054e+04  1.693053695773509162e+02
6.075000000000000000e+01  2.779000000000000000e+04  1.691370832821013153e+02
6.100000000000000000e+01  2.723155555555555839e+04  1.680480041156181130e+02
6.125000000000000000e+01  2.581856209150326686e+04  1.537037021596574959e+02
6.150000000000000000e+01  2.508100000000000000e+04  1.583698203572890293e+02
6.175000000000000000e+01  2.506306569343065712e+04  1.600371580274130565e+02
6.200000000000000000e+01  2.584686131386861234e+04  1.625203094313936845e+02
6.225000000000000000e+01  2.835308823529411893e+04  1.708420398940369296e+02
6.250000000000000000e+01  3.582190476190476329e+04  1.847054405621085778e+02
6.275000000000000000e+01  5.023454545454545587e+04  2.217671613913632598e+02
6.300000000000000000e+01  6.898071942446043249e+04  2.635848698104307459e+02
6.325000000000000000e+01  8.578423357664233481e+04  2.960789091497132404e+02
6.350000000000000000e+01  9.746145985401461076e+04  3.155877887459563453e+02
6.375000000000000000e+01  9.906088888888889051e+04  3.205149149409251663e+02
6.400000000000000000e+01  9.197907284768212412e+04  2.920250170571949297e+02
6.425000000000000000e+01  7.326368794326241186e+04  2.697111182720344118e+02
6.450000000000000000e+01  5.292306569343066076e+04  2.325552943757503783e+02
6.475000000000000000e+01  3.784768115942028817e+04  1.959494788910467094e+02
6.500000000000000000e+01  2.910455882352940898e+04  1.730912339187504188e+02
6.525000000000000000e+01  2.586597222222222263e+04  1.585795478421702285e+02
6.550000000000000000e+01  2.435805555555555475e+04  1.538877607259088336e+02
6.575000000000000000e+01  2.420500000000000000e+04  1.555795616396960668e+02
6.600000000000000000e+01  2.346318840579710013e+04  1.542829692953074243e+02
6.625000000000000000e+01  2.377138686131386930e+04  1.558586801543142428e+02
6.650000000000000000e+01  2.374631578947368689e+04  1.581016188521057018e+02
6.675000000000000000e+01  2.370293333333333430e+04  1.487371432352315139e+02
6.700000000000000000e+01  2.413286713286713348e+04  1.537094115758784199e+02
6.725000000000000000e+01  2.369323741007194258e+04  1.544787763916718575e+02
6.750000000000000000e+01  2.329722627737226503e+04  1.542964177063833802e+02
6.775000000000000000e+01  2.292315789473683981e+04  1.553371812838017263e+02
6.800000000000000000e+01  2.239118881118881109e+04  1.480589193239422912e+02
6.825000000000000000e+01  2.236835616438356010e+04  1.464551421110872411e+02
6.850000000000000000e+01  2.296098591549295816e+04  1.504579401283598372e+02
6.875000000000000000e+01  2.203173913043478387e+04  1.495026411055755773e+02
6.900000000000000000e+01  2.214194029850746301e+04  1.520965826740601017e+02
6.925000000000000000e+01  2.262567164179104293e+04  1.537490208645135397e+02
6.950000000000000000e+01  2.302626666666666642e+04  1.465987115298842696e+02
6.975000000000000000e+01  2.236986111111111313e+04  1.474736453751886813e+02
7.000000000000000000e+01  2.253200000000000000e+04  1.501066287676863453e+02
7.025000000000000000e+01  2.260477611940298448e+04  1.536780084267203108e+02
7.050000000000000000e+01  2.273432835820895707e+04  1.541177580920601997e+02
7.075000000000000000e+01  2.282805755395683445e+04  1.516320816444904551e+02
7.100000000000000000e+01  2.270947368421052670e+04  1.446257947207722623e+02
7.125000000000000000e+01  2.297478873239436507e+04  1.505031566403132786e+02
7.150000000000000000e+01  2.342251851851851825e+04  1.558525559764406978e+02
7.175000000000000000e+01  2.371600000000000000e+04  1.568259237829331880e+02
7.200000000000000000e+01  2.515716417910447490e+04  1.621221896170556818e+02
7.225000000000000000e+01  2.666304635761589088e+04  1.572281947750678057e+02
7.250000000000000000e+01  2.779531034482758696e+04  1.638195695496106907e+02
7.275000000000000000e+01  2.879401459854014684e+04  1.715358285188883656e+02
7.300000000000000000e+01  2.928903703703703650e+04  1.742808543316130567e+02
7.325000000000000000e+01  3.113288888888888687e+04  1.796829397793141254e+02
7.350000000000000000e+01  2.609014925373134247e+04  1.651010747752966950e+02
7.375000000000000000e+01  2.606853503184713554e+04  1.524658237669470111e+02
7.400000000000000000e+01  2.551500000000000000e+04  1.597341541436896364e+02
7.425000000000000000e+01  2.464514705882352791e+04  1.592796419046059953e+02
7.450000000000000000e+01  2.367647058823529369e+04  1.561180238481201457e+02
7.475000000000000000e+01  2.374149253731343197e+04  1.574945854369897233e+02
7.500000000000000000e+01  2.420973333333333358e+04  1.503188315252320990e+02
7.525000000000000000e+01  2.438839160839160832e+04  1.545210245539246330e+02
7.550000000000000000e+01  2.458158273381294930e+04  1.573481129621872583e+02
7.575000000000000000e+01  2.504455882352940898e+04  1.605651378562908462e+02
7.600000000000000000e+01  2.442014814814814963e+04  1.591370418210701700e+02
7.625000000000000000e+01  2.514918518518518613e+04  1.614950045306052004e+02
7.650000000000000000e+01  2.454026143790849892e+04  1.498503960122038166e+02
7.675000000000000000e+01  2.429943262411347314e+04  1.553289935025782995e+02
7.700000000000000000e+01  2.397652173913043589e+04  1.559615579604046900e+02
7.725000000000000000e+01  2.466161764705882524e+04  1.593328570714796228e+02
7.750000000000000000e+01  2.481808823529411893e+04  1.598375175198877400e+02
7.775000000000000000e+01  2.577860139860139680e+04  1.588640663556435868e+02
7.800000000000000000e+01  2.619630136986301659e+04  1.584920851007856299e+02
7.825000000000000000e+01  2.721100000000000364e+04  1.649575703021840809e+02
7.850000000000000000e+01  2.864521739130434798e+04  1.704710106423939351e+02
7.875000000000000000e+01  2.898204379562043687e+04  1.720949943793108901e+02
7.900000000000000000e+01  3.009781250000000000e+04  1.814372685582402767e+02
7.925000000000000000e+01  3.007545454545454413e+04  1.653521161462700775e+02
7.950000000000000000e+01  3.013986111111111313e+04  1.711801470583361038e+02
7.975000000000000000e+01  2.932949640287769944e+04  1.718734999181706939e+02
8.000000000000000000e+01  2.862086956521739194e+04  1.703985468726406225e+02
8.025000000000000000e+01  2.838201550387596944e+04  1.755055194817176130e+02
8.050000000000000000e+01  2.755219858156028567e+04  1.653988903162934889e+02
8.075000000000000000e+01  2.915059602649006411e+04  1.643990348924437797e+02
8.100000000000000000e+01  3.091160839160839168e+04  1.739629647674054524e+02
8.125000000000000000e+01  3.364028776978417591e+04  1.840714650035675675e+02
8.150000000000000000e+01  3.713446153846153902e+04  1.999773951722585252e+02
8.175000000000000000e+01  4.027296875000000000e+04  2.098774870497369420e+02
8.200000000000000000e+01  4.240653846153846098e+04  1.950824182272217513e+02
8.225000000000000000e+01  4.375714285714285506e+04  2.041408077473857361e+02
8.250000000000000000e+01  4.419464788732393936e+04  2.087395220314662936e+02
8.275000000000000000e+01  4.216778625954198651e+04  2.122847374236357609e+02
8.300000000000000000e+01  4.043046875000000000e+04  2.102874822601490621e+02
8.325000000000000000e+01  3.812074626865671598e+04  1.995686482274031732e+02
8.350000000000000000e+01  3.407754601226993691e+04  1.710820210444365443e+02
8.375000000000000000e+01  3.146068493150684662e+04  1.736887448031907866e+02
8.400000000000000000e+01  3.016315789473684345e+04  1.781872400616150287e+02
8.425000000000000000e+01  2.989984375000000000e+04  1.808395811252683245e+02
8.450000000000000000e+01  3.147921875000000000e+04  1.855542926148907554e+02
8.475000000000000000e+01  3.173597484276729665e+04  1.671634698363240545e+02
8.500000000000000000e+01  3.297818181818181620e+04  1.731478134117095635e+02
8.525000000000000000e+01  3.524370370370370074e+04  1.911779957607572840e+02
8.550000000000000000e+01  3.368312500000000000e+04  1.919398811314365787e+02
8.575000000000000000e+01  3.515093750000000000e+04  1.960773773045350481e+02
8.600000000000000000e+01  3.334296875000000000e+04  1.909682488538670668e+02
8.625000000000000000e+01  3.318000000000000000e+04  1.606445351285460390e+02
8.650000000000000000e+01  3.092900000000000000e+04  1.758664265856334623e+02
8.675000000000000000e+01  2.943390625000000000e+04  1.794250120828684771e+02
8.700000000000000000e+01  2.766203125000000000e+04  1.739406412535250581e+02
8.725000000000000000e+01  2.708234375000000000e+04  1.721084352278019480e+02
8.750000000000000000e+01  2.579916666666666424e+04  1.466264149311288065e+02
8.775000000000000000e+01  3.070513157894736651e+04  1.681696828913205479e+02
8.800000000000000000e+01  1.834875000000000000e+04  1.416649050135565631e+02
8.825000000000000000e+01  2.615156250000000000e+04  1.691250173226155198e+02
8.850000000000000000e+01  2.547015625000000000e+04  1.669071100895270661e+02
8.875000000000000000e+01  2.628937500000000000e+04  1.695700560424805872e+02
8.900000000000000000e+01  2.622010416666666788e+04  1.382708427502382449e+02
8.925000000000000000e+01  2.600390625000000000e+04  1.686468868996327046e+02
8.950000000000000000e+01  2.606187500000000000e+04  1.688347588065028617e+02
8.975000000000000000e+01  2.581031250000000000e+04  1.680179433777089457e+02
9.000000000000000000e+01  2.634078125000000000e+04  1.697357637393708103e+02
9.025000000000000000e+01  2.547270833333333212e+04  1.362859120613311461e+02
9.050000000000000000e+01  2.663937500000000000e+04  1.706950977803697924e+02
9.075000000000000000e+01  2.694671875000000000e+04  1.716769455483539843e+02
9.100000000000000000e+01  2.620515625000000000e+04  1.692982269500702728e+02
9.125000000000000000e+01  2.699812500000000000e+04  1.718406215618123269e+02
9.150000000000000000e+01  2.680904109589041036e+04  1.603349608818700744e+02
9.175000000000000000e+01  2.780367816091954228e+04  1.495686315100006141e+02
9.200000000000000000e+01  2.672140625000000000e+04  1.709577084718249864e+02
9.225000000000000000e+01  2.746734375000000000e+04  1.733274566436676594e+02
9.250000000000000000e+01  2.751109375000000000e+04  1.734654397540400339e+02
9.275000000000000000e+01  2.663422222222222263e+04  1.661946897380278472e+02
9.300000000000000000e+01  2.620572972972973002e+04  1.408238724034898439e+02
9.325000000000000000e+01  2.713046875000000000e+04  1.722612846675436344e+02
9.350000000000000000e+01  2.669187500000000000e+04  1.708632151203119633e+02
9.375000000000000000e+01  2.727046875000000000e+04  1.727051684093805477e+02
9.400000000000000000e+01  2.698793893129770731e+04  1.698295384799657484e+02
9.425000000000000000e+01  2.733679487179487478e+04  1.566302047460523283e+02
9.450000000000000000e+01  2.767565217391304395e+04  1.551315071126907696e+02
9.475000000000000000e+01  2.745531250000000000e+04  1.732894920267094392e+02
9.500000000000000000e+01  2.766531250000000000e+04  1.739509573037038308e+02
9.525000000000000000e+01  2.752031007751938159e+04  1.728207255652653487e+02
9.550000000000000000e+01  2.765662162162161985e+04  1.617456926830942336e+02
9.575000000000000000e+01  2.790502923976608145e+04  1.511496700935834951e+02
9.600000000000000000e+01  2.826140625000000000e+04  1.758149967606219093e+02
9.625000000000000000e+01  2.799234375000000000e+04  1.749760725829748935e+02
9.650000000000000000e+01  2.964937500000000000e+04  1.800805483839106955e+02
9.675000000000000000e+01  3.026643356643356674e+04  1.721379488133956102e+02
9.700000000000000000e+01  3.108472972972973002e+04  1.714773281476687146e+02
9.725000000000000000e+01  3.350012738853503106e+04  1.728372791380382694e+02
9.750000000000000000e+01  3.483703125000000000e+04  1.951999050452830033e+02
9.775000000000000000e+01  3.643281250000000000e+04  1.996206118412499961e+02
9.800000000000000000e+01  3.803900000000000000e+04  1.950358941323365798e+02
9.825000000000000000e+01  3.923916083916083880e+04  1.959999021956819831e+02
9.850000000000000000e+01  4.134300653594771575e+04  1.944998767584111476e+02
9.875000000000000000e+01  4.209400000000000000e+04  2.051682236604879392e+02
9.900000000000000000e+01  4.112609375000000000e+04  2.120888140356829581e+02
9.925000000000000000e+01  4.306788321167883259e+04  2.097879299311123020e+02
9.950000000000000000e+01  4.148700000000000000e+04  2.036835781303932151e+02
9.975000000000000000e+01  4.018972222222222626e+04  1.976697777845230632e+02
1.000000000000000000e+02  3.825341935483871202e+04  1.858802720740044663e+02
1.002500000000000000e+02  3.613421875000000000e+04  1.988009098515711059e+02
1.005000000000000000e+02  3.425229629629629926e+04  1.884698911307208959e+02
1.007500000000000000e+02  3.248100719424460112e+04  1.808720086276330790e+02
1.010000000000000000e+02  3.129000000000000000e+04  1.768897962009114906e+02
1.012500000000000000e+02  3.017851351351351332e+04  1.689592924724267959e+02
1.015000000000000000e+02  2.983084507042253244e+04  1.714954586073689313e+02
1.017500000000000000e+02  2.971447761194029590e+04  1.761958473105704570e+02
1.020000000000000000e+02  2.904846715328466962e+04  1.722920920244440879e+02
1.022500000000000000e+02  2.950855072463768374e+04  1.730208394386849875e+02
1.025000000000000000e+02  2.839319148936169950e+04  1.679042028567328089e+02
1.027500000000000000e+02  2.878090909090908826e+04  1.617543285662468975e+02
1.030000000000000000e+02  2.825368421052631675e+04  1.724549802748724687e+02
1.032500000000000000e+02  2.887088235294117476e+04  1.723949707838285121e+02
1.035000000000000000e+02  2.800715328467153086e+04  1.691757920391481491e+02
1.037500000000000000e+02  2.794217391304347620e+04  1.683660683013697508e+02
1.040000000000000000e+02  2.782597222222222263e+04  1.644780488374747165e+02
1.042500000000000000e+02  2.752513513513513317e+04  1.613607448938415132e+02
1.045000000000000000e+02  2.814829629629629562e+04  1.708532287922932653e+02
1.047500000000000000e+02  2.793720588235294417e+04  1.695844580387734197e+02
1.050000000000000000e+02  2.788554744525547358e+04  1.688081155367359258e+02
1.052500000000000000e+02  2.710057553956834818e+04  1.652136305179380713e+02
1.055000000000000000e+02  2.759515923566879064e+04  1.568666579073346554e+02
1.057500000000000000e+02  2.719552238805970410e+04  1.685622506545698229e+02
1.060000000000000000e+02  2.737155555555555839e+04  1.684794256650584998e+02
1.062500000000000000e+02  2.719500000000000000e+04  1.673166248200592747e+02
1.065000000000000000e+02  2.803883211678832231e+04  1.692714421904756534e+02
1.067500000000000000e+02  2.723000000000000000e+04  1.627071329447824439e+02
1.070000000000000000e+02  2.809735099337748397e+04  1.614017475116678781e+02
1.072500000000000000e+02  2.738462686567164201e+04  1.691472854881660624e+02
1.075000000000000000e+02  2.783614814814814963e+04  1.699032565846798377e+02
1.077500000000000000e+02  2.777764705882352791e+04  1.690994875160793640e+02
1.080000000000000000e+02  2.711531914893617068e+04  1.640823327507551141e+02
1.082500000000000000e+02  2.790181818181818380e+04  1.592648399873567371e+02
1.085000000000000000e+02  2.742364963503649415e+04  1.674042039802354225e+02
1.087500000000000000e+02  2.763746268656716347e+04  1.699263399706368034e+02
1.090000000000000000e+02  2.741407407407407300e+04  1.686102314537633049e+02
1.092500000000000000e+02  2.730402877697841541e+04  1.658326283898416023e+02
1.095000000000000000e+02  2.775597222222222263e+04  1.642710351639240116e+02
1.097500000000000000e+02  2.750675496688741623e+04  1.596964358554339753e+02
1.100000000000000000e+02  2.816842105263158010e+04  1.721945688141350104e+02
1.102500000000000000e+02  2.796865671641791050e+04  1.709414655052815135e+02
1.105000000000000000e+02  2.793000000000000000e+04  1.683293872403023386e+02
1.107500000000000000e+02  2.823267605633803032e+04  1.668383431097326763e+02
1.110000000000000000e+02  2.885797297297297337e+04  1.652213138248254722e+02
1.112500000000000000e+02  2.902865248226950644e+04  1.697727172260318014e+02
1.115000000000000000e+02  2.983052631578947330e+04  1.772020147081304913e+02
1.117500000000000000e+02  3.016233576642335538e+04  1.755643040905456758e+02
1.120000000000000000e+02  3.117266187050359804e+04  1.771917764033298681e+02
1.122500000000000000e+02  3.008727272727272793e+04  1.716277110536807982e+02
1.125000000000000000e+02  3.240860927152317527e+04  1.733427737328144929e+02
1.127500000000000000e+02  3.208947368421052670e+04  1.837889913781577889e+02
1.130000000000000000e+02  3.346518518518518249e+04  1.862918046730456467e+02
1.132500000000000000e+02  3.358388489208633109e+04  1.839170888600708622e+02
1.135000000000000000e+02  3.369800000000000000e+04  1.835701500789275826e+02
1.137500000000000000e+02  3.500479452054794820e+04  1.832109203106446103e+02
1.140000000000000000e+02  3.438478873239436507e+04  1.841208731603957744e+02
1.142500000000000000e+02  3.406977777777778101e+04  1.879670753062274002e+02
1.145000000000000000e+02  3.468652173913043953e+04  1.875879125976431965e+02
1.147500000000000000e+02  3.469884892086331092e+04  1.869451281191575447e+02
1.150000000000000000e+02  3.437446808510638220e+04  1.847448985258085656e+02
1.152500000000000000e+02  3.433266666666666424e+04  1.790078831287109153e+02
1.155000000000000000e+02  3.490251851851851825e+04  1.902503729025905557e+02
1.157500000000000000e+02  3.467882352941176941e+04  1.889412314116102038e+02
1.160000000000000000e+02  3.494014492753623199e+04  1.882724723360521182e+02
1.162500000000000000e+02  3.480258992805755406e+04  1.872243794831851744e+02
1.165000000000000000e+02  3.501370629370629467e+04  1.851463016503903987e+02
1.167500000000000000e+02  3.522438356164383731e+04  1.837846733408445346e+02
1.170000000000000000e+02  3.874911764705881797e+04  1.997218004571726055e+02
1.172500000000000000e+02  3.258449275362318804e+04  1.818151032753825689e+02
1.175000000000000000e+02  3.286525547445255506e+04  1.832619234910251294e+02
1.177500000000000000e+02  3.714500000000000000e+04  1.927303816215803636e+02
1.180000000000000000e+02  3.676842105263158010e+04  1.840262235919899467e+02
1.182500000000000000e+02  3.727294117647058738e+04  1.958805864608566480e+02
1.185000000000000000e+02  3.682205882352941262e+04  1.946922200644731049e+02
1.187500000000000000e+02  3.717766423357664462e+04  1.949147856611919565e+02
1.190000000000000000e+02  3.700028776978417591e+04  1.930452716085791565e+02
1.192500000000000000e+02  3.645619718309859309e+04  1.895856788292287263e+02
1.195000000000000000e+02  3.655986486486485956e+04  1.859668141181392400e+02
1.197500000000000000e+02  3.523985294117646845e+04  1.904634327217490863e+02
1.200000000000000000e+02  3.503397058823529369e+04  1.899062439412913932e+02
1.202500000000000000e+02  3.453840579710144812e+04  1.871869717765009113e+02
1.205000000000000000e+02  3.365300000000000000e+04  1.834475401851984486e+02
1.207500000000000000e+02  3.289719999999999709e+04  1.752257210952014361e+02
1.210000000000000000e+02  3.268086956521739194e+04  1.820837866368602249e+02
1.212500000000000000e+02  3.252941176470588107e+04  1.829922380035562242e+02
1.215000000000000000e+02  3.187779411764705583e+04  1.811501484889754749e+02
1.217500000000000000e+02  3.198700000000000000e+04  1.788490984042133789e+02
1.220000000000000000e+02  3.183482517482517505e+04  1.765416713119569749e+02
1.222500000000000000e+02  3.170243243243242978e+04  1.731727098479570941e+02
1.225000000000000000e+02  3.167214814814814963e+04  1.812324216914667545e+02
1.227500000000000000e+02  3.125705882352940898e+04  1.793777691996558019e+02
1.230000000000000000e+02  3.119768115942029181e+04  1.779039669767893486e+02
1.232500000000000000e+02  3.099858156028368830e+04  1.754386886183075376e+02
1.235000000000000000e+02  3.105602739726027357e+04  1.725681091590874701e+02
1.237500000000000000e+02  3.091535211267605700e+04  1.745850068537711479e+02
1.240000000000000000e+02  3.068903703703703650e+04  1.783975000901323540e+02
1.242500000000000000e+02  3.066100719424460112e+04  1.757315850375643436e+02
1.245000000000000000e+02  3.018964028776978375e+04  1.743755485855638199e+02
1.247500000000000000e+02  3.042269503546099440e+04  1.738014132303971166e+02
1.250000000000000000e+02  3.031472972972973002e+04  1.693401774248653453e+02
1.252500000000000000e+02  3.010414814814814599e+04  1.766893222525899034e+02
1.255000000000000000e+02  2.971043478260869233e+04  1.736116954411506583e+02
1.257500000000000000e+02  2.989913043478260806e+04  1.741621404488400344e+02
1.260000000000000000e+02  2.969500000000000000e+04  1.723223723142180859e+02
1.262500000000000000e+02  2.910347222222222263e+04  1.682113029444561505e+02
1.265000000000000000e+02  2.915426573426573668e+04  1.689456651761110493e+02
1.267500000000000000e+02  2.894116788321167769e+04  1.719735912430563474e+02
1.270000000000000000e+02  2.913420289855072406e+04  1.719198584316756921e+02
1.272500000000000000e+02  2.940201438848920952e+04  1.720858497142040733e+02
1.275000000000000000e+02  2.914800000000000000e+04  1.707278536150443244e+02
1.277500000000000000e+02  2.904577181208053662e+04  1.652008753590746721e+02
1.280000000000000000e+02  2.830573529411764684e+04  1.706993172816318634e+02
1.282500000000000000e+02  2.846565217391304395e+04  1.699358639534131328e+02
1.285000000000000000e+02  2.847824817518248165e+04  1.705926711470677333e+02
1.287500000000000000e+02  2.850359712230215882e+04  1.694362976817626532e+02
1.290000000000000000e+02  2.852910344827586232e+04  1.659678922575215552e+02
1.292500000000000000e+02  2.866427586206896376e+04  1.663606099907077862e+02
1.295000000000000000e+02  2.846426470588235316e+04  1.711766600969235981e+02
1.297500000000000000e+02  2.874941176470588107e+04  1.720319234879443684e+02
1.300000000000000000e+02  2.850724637681159220e+04  1.700599743473644310e+02
1.302500000000000000e+02  2.839552447552447484e+04  1.667327627427859227e+02
1.305000000000000000e+02  2.811932885906040246e+04  1.625449042813769438e+02
1.307500000000000000e+02  2.854671532846715127e+04  1.707976167371931524e+02
1.310000000000000000e+02  2.803500000000000000e+04  1.698810137229272925e+02
1.312500000000000000e+02  2.725094890510948971e+04  1.668762565870910350e+02
1.315000000000000000e+02  2.735460992907801483e+04  1.648047499416805977e+02
1.317500000000000000e+02  2.710806451612903038e+04  1.749453608770571122e+02
1.320000000000000000e+02  1.473422222222222081e+04  2.141023177575053751e+02
