# DMC at SINQ, PSI: Sample name = Unknown, wavelength = 2.450 AA, T = 0.0 K
# Filelist='dmc:2022:581'
#   0.000   0.125 132.000     140., sample="Unknown"
0.000000000000000000e+00  1.181600000000000000e+05  2.875969401784379443e+03
1.250000000000000000e-01  1.214850000000000000e+05  2.062031765031761097e+03
2.500000000000000000e-01  1.163540000000000000e+05  1.276305606036422660e+03
3.750000000000000000e-01  1.160880000000000000e+05  1.274845873037207411e+03
5.000000000000000000e-01  1.125444444444444525e+05  9.355991016521689971e+02
6.250000000000000000e-01  1.142944444444444525e+05  9.428450509619577815e+02
7.500000000000000000e-01  1.137284615384615317e+05  7.825496940569584012e+02
8.750000000000000000e-01  1.153150000000000000e+05  7.593253584597316603e+02
1.000000000000000000e+00  1.139100000000000000e+05  7.546853649038121148e+02
1.125000000000000000e+00  1.124480000000000000e+05  6.273499820674261400e+02
1.250000000000000000e+00  1.139288888888888905e+05  6.656251122993007812e+02
1.375000000000000000e+00  1.119358333333333285e+05  5.713838586177324714e+02
1.500000000000000000e+00  1.136800000000000000e+05  6.155756113860695677e+02
1.625000000000000000e+00  1.105766666666666715e+05  5.354252953620890594e+02
1.750000000000000000e+00  1.136770833333333285e+05  5.758108714866559694e+02
1.875000000000000000e+00  1.100738709677419392e+05  4.985518049162230341e+02
2.000000000000000000e+00  1.126050000000000000e+05  5.305775155432049814e+02
2.125000000000000000e+00  1.105240000000000146e+05  4.701574204455354788e+02
2.250000000000000000e+00  1.108840000000000000e+05  4.709224989316182359e+02
2.375000000000000000e+00  1.118089189189189201e+05  4.599243276278182293e+02
2.500000000000000000e+00  1.108747500000000000e+05  4.404892876109474855e+02
2.625000000000000000e+00  1.105410526315789466e+05  4.512518751735502747e+02
2.750000000000000000e+00  1.107893181818181911e+05  4.198282190028135687e+02
2.875000000000000000e+00  1.115233333333333285e+05  4.311290087922897101e+02
3.000000000000000000e+00  1.099595744680851203e+05  4.046845425699138445e+02
3.125000000000000000e+00  1.112693750000000000e+05  4.028248236413275549e+02
3.250000000000000000e+00  1.103097916666666715e+05  4.010840886654013957e+02
3.375000000000000000e+00  1.125142307692307659e+05  3.891805037473503717e+02
3.500000000000000000e+00  1.102012500000000000e+05  3.711489761537811205e+02
3.625000000000000000e+00  1.110801754385964887e+05  3.693429984968271356e+02
3.750000000000000000e+00  1.111329824561403511e+05  3.694307800683732239e+02
3.875000000000000000e+00  1.112472131147541077e+05  3.572964264601497462e+02
4.000000000000000000e+00  1.109943333333333430e+05  3.598518985484012660e+02
4.125000000000000000e+00  1.107979687500000000e+05  3.481167596084860634e+02
4.250000000000000000e+00  1.116948437500000000e+05  3.495228681382128002e+02
4.375000000000000000e+00  1.116080000000000000e+05  3.466889539186830689e+02
4.500000000000000000e+00  1.113583333333333285e+05  3.290365424938335082e+02
4.625000000000000000e+00  1.114111764705882233e+05  3.386561320551374479e+02
4.750000000000000000e+00  1.108218181818181911e+05  3.174068484422106735e+02
4.875000000000000000e+00  1.111787323943661904e+05  3.310782909751240481e+02
5.000000000000000000e+00  1.114779518072289211e+05  3.066228134319754304e+02
5.125000000000000000e+00  1.113405263157894660e+05  3.202350461216619237e+02
5.250000000000000000e+00  1.109457317073170707e+05  3.077495263516435671e+02
5.375000000000000000e+00  1.109392307692307659e+05  3.155326419346067155e+02
5.500000000000000000e+00  1.116821176470588252e+05  3.032713449215389687e+02
5.625000000000000000e+00  1.122504444444444380e+05  2.954757202116070403e+02
5.750000000000000000e+00  1.115051162790697708e+05  3.012639679196379916e+02
5.875000000000000000e+00  1.121475268817204196e+05  2.905376344086021163e+02
6.000000000000000000e+00  1.118825287356321787e+05  3.000340404345383263e+02
6.125000000000000000e+00  1.123810309278350614e+05  2.847801134923323616e+02
6.250000000000000000e+00  1.118473404255319183e+05  2.886010614279008450e+02
6.375000000000000000e+00  1.125253465346534649e+05  2.792630729883712206e+02
6.500000000000000000e+00  1.122064285714285652e+05  2.831032479142403417e+02
6.625000000000000000e+00  1.133960000000000000e+05  2.749496923681373346e+02
6.750000000000000000e+00  1.134583333333333285e+05  2.790404309262427773e+02
6.875000000000000000e+00  1.147454128440366912e+05  2.714584952998935137e+02
7.000000000000000000e+00  1.125732075471698190e+05  2.726550887784973156e+02
7.125000000000000000e+00  1.150324770642201911e+05  2.717978436989658348e+02
7.250000000000000000e+00  1.178813861386138597e+05  2.858320671147982353e+02
7.375000000000000000e+00  1.198254166666666715e+05  2.955887339747199576e+02
7.500000000000000000e+00  1.247240217391304323e+05  3.080563458083872206e+02
7.625000000000000000e+00  1.263981720430107525e+05  3.084451475783526462e+02
7.750000000000000000e+00  1.313359090909090883e+05  3.232208933032773075e+02
7.875000000000000000e+00  1.330886666666666570e+05  3.217349956212525512e+02
8.000000000000000000e+00  1.364723255813953583e+05  3.332898520405756244e+02
8.125000000000000000e+00  1.377422988505747053e+05  3.329070996632687525e+02
8.250000000000000000e+00  1.406251724137931014e+05  3.363728443972246396e+02
8.375000000000000000e+00  1.432103750000000000e+05  3.539902232053874513e+02
8.500000000000000000e+00  1.451289411764706019e+05  3.457136843648128774e+02
8.625000000000000000e+00  1.484665000000000000e+05  3.604277840289230426e+02
8.750000000000000000e+00  1.466322891566265025e+05  3.516614650991904227e+02
8.875000000000000000e+00  1.546309090909091174e+05  3.749313986838236019e+02
9.000000000000000000e+00  1.505017073170731601e+05  3.584369780336450617e+02
9.125000000000000000e+00  1.571174418604651291e+05  3.576119263760999161e+02
9.250000000000000000e+00  1.559885526315789321e+05  3.790430937208946602e+02
9.375000000000000000e+00  1.593859770114942512e+05  3.581083505014975117e+02
9.500000000000000000e+00  1.636688732394366234e+05  4.017009806332292783e+02
9.625000000000000000e+00  1.608408333333333139e+05  3.661065798067248238e+02
9.750000000000000000e+00  1.673794594594594382e+05  3.979094383277424640e+02
9.875000000000000000e+00  1.637844444444444380e+05  3.762208294112026579e+02
1.000000000000000000e+01  1.683508974358974374e+05  3.886954318287305910e+02
1.012500000000000000e+01  1.676923684210526117e+05  3.930057216249107910e+02
1.025000000000000000e+01  1.706100000000000000e+05  3.938273733503042990e+02
1.037500000000000000e+01  1.682370666666666802e+05  3.962590847188519092e+02
1.050000000000000000e+01  1.711278048780487734e+05  3.822102974558131336e+02
1.062500000000000000e+01  1.702857333333333372e+05  3.986644593026961729e+02
1.075000000000000000e+01  1.717215189873417839e+05  3.900747466364201728e+02
1.087500000000000000e+01  1.703743999999999942e+05  3.987682367825535721e+02
1.100000000000000000e+01  1.698709090909090883e+05  3.929734077180715417e+02
1.112500000000000000e+01  1.715202631578947185e+05  3.974659604930873797e+02
1.125000000000000000e+01  1.698966216216216271e+05  4.008902848073090013e+02
1.137500000000000000e+01  1.726909459459459176e+05  4.041736015861724809e+02
1.150000000000000000e+01  1.681243421052631747e+05  3.935115852532576355e+02
1.162500000000000000e+01  1.719370270270270412e+05  4.032903838107409342e+02
1.175000000000000000e+01  1.689221333333333314e+05  3.970650548433818017e+02
1.187500000000000000e+01  1.710970512820512813e+05  3.918528241137780128e+02
1.200000000000000000e+01  1.715498630136986321e+05  4.055858338789369668e+02
1.212500000000000000e+01  1.701455000000000000e+05  3.858462290861477300e+02
1.225000000000000000e+01  1.710940000000000000e+05  4.136351048931896912e+02
1.237500000000000000e+01  1.705820253164557216e+05  3.887783816356553075e+02
1.250000000000000000e+01  1.701830000000000000e+05  4.125324229681831980e+02
1.262500000000000000e+01  1.709054666666666744e+05  3.993892448337697942e+02
1.275000000000000000e+01  1.728348611111110949e+05  4.099193734710688091e+02
1.287500000000000000e+01  1.700472727272727061e+05  3.931773515248127069e+02
1.300000000000000000e+01  1.714750000000000000e+05  4.140953996363639931e+02
1.312500000000000000e+01  1.699236000000000058e+05  3.982403294494419015e+02
1.325000000000000000e+01  1.717547999999999884e+05  4.003804191016338905e+02
1.337500000000000000e+01  1.702239189189189347e+05  4.012762464990704530e+02
1.350000000000000000e+01  1.724445454545454704e+05  3.959390970781255419e+02
1.362500000000000000e+01  1.724810144927536021e+05  4.183069917422785124e+02
1.375000000000000000e+01  1.692492307692307804e+05  3.897311064127675309e+02
1.387500000000000000e+01  1.712260000000000000e+05  4.137946350546367285e+02
1.400000000000000000e+01  1.709277027027026925e+05  4.021049209117882697e+02
1.412500000000000000e+01  1.722197183098591631e+05  4.120607824999959803e+02
1.425000000000000000e+01  1.679659210526315728e+05  3.933261415175808224e+02
1.437500000000000000e+01  1.712352173913043516e+05  4.167935786556333255e+02
1.450000000000000000e+01  2.012859459459459176e+05  4.363549295510048864e+02
1.462500000000000000e+01  1.532972368421052815e+05  3.757589964421374020e+02
1.475000000000000000e+01  1.658869333333333489e+05  3.934816443551649172e+02
1.487500000000000000e+01  1.693510958904109721e+05  4.029782398749624690e+02
1.500000000000000000e+01  1.708798591549295816e+05  4.104547485110662706e+02
1.512500000000000000e+01  1.683159459459459176e+05  3.990210354174633380e+02
1.525000000000000000e+01  1.721730000000000000e+05  4.149373446678425807e+02
1.537500000000000000e+01  1.664202702702702663e+05  3.967676649947558758e+02
1.550000000000000000e+01  1.714155882352941262e+05  4.200681173135982931e+02
1.562500000000000000e+01  1.701709210526315728e+05  3.958994501811534406e+02
1.575000000000000000e+01  1.722875000000000000e+05  4.211351082630902170e+02
1.587500000000000000e+01  1.679290666666666802e+05  3.958961929035887124e+02
1.600000000000000000e+01  1.694037837837837869e+05  4.003084092274028762e+02
1.612500000000000000e+01  1.677503947368421068e+05  3.930737113071486419e+02
1.625000000000000000e+01  1.709330985915492929e+05  4.105186843015582099e+02
1.637500000000000000e+01  1.719056164383561409e+05  4.060061601308250943e+02
1.650000000000000000e+01  1.694561971830985858e+05  4.087413487531201213e+02
1.662500000000000000e+01  1.723073972602739814e+05  4.064803455832375221e+02
1.675000000000000000e+01  1.708483098591549206e+05  4.104168559352631860e+02
1.687500000000000000e+01  1.738576388888889051e+05  4.111304659482974557e+02
1.700000000000000000e+01  1.696484507042253390e+05  4.089731481473744452e+02
1.712500000000000000e+01  1.723040000000000000e+05  4.150951698104905745e+02
1.725000000000000000e+01  1.690208333333333430e+05  4.053712004881269308e+02
1.737500000000000000e+01  1.727628767123287544e+05  4.070172385340415531e+02
1.750000000000000000e+01  1.716297333333333372e+05  4.002346200806610454e+02
1.762500000000000000e+01  1.715550000000000000e+05  4.141919844709697145e+02
1.775000000000000000e+01  1.710230666666666511e+05  3.995266310133642378e+02
1.787500000000000000e+01  1.702810000000000000e+05  4.126511844160876876e+02
1.800000000000000000e+01  1.722316438356164144e+05  4.063909830142010264e+02
1.812500000000000000e+01  1.695920000000000000e+05  4.118154926663153219e+02
1.825000000000000000e+01  1.721338888888889051e+05  4.090872669435075863e+02
1.837500000000000000e+01  1.681300000000000000e+05  4.100365837336956361e+02
1.850000000000000000e+01  1.733330000000000000e+05  4.163327995726495487e+02
1.862500000000000000e+01  1.682780281690140837e+05  4.073179533192848112e+02
1.875000000000000000e+01  1.721236363636363822e+05  3.955705159106922792e+02
1.887500000000000000e+01  1.703280000000000000e+05  4.127081293117449832e+02
1.900000000000000000e+01  1.701252000000000116e+05  3.984764986796586186e+02
1.912500000000000000e+01  1.696800000000000000e+05  4.119223227745736153e+02
1.925000000000000000e+01  1.689148611111110949e+05  4.052441012967399843e+02
1.937500000000000000e+01  1.709120000000000000e+05  4.134150456865352226e+02
1.950000000000000000e+01  1.692552054794520664e+05  4.028641360354433232e+02
1.962500000000000000e+01  1.716369565217391355e+05  4.172822170249322085e+02
1.975000000000000000e+01  1.667409859154929582e+05  4.054534761537183840e+02
1.987500000000000000e+01  1.702730000000000000e+05  4.126414908852477197e+02
2.000000000000000000e+01  1.687380000000000000e+05  4.107773119343374901e+02
2.012500000000000000e+01  1.702465333333333256e+05  3.986185701199136133e+02
2.025000000000000000e+01  1.685550704225352092e+05  4.076531066313140172e+02
2.037500000000000000e+01  1.695483999999999942e+05  3.978004189707865521e+02
2.050000000000000000e+01  1.688570000000000000e+05  4.109221337431217194e+02
2.062500000000000000e+01  1.670919718309859163e+05  4.058799869136545340e+02
2.075000000000000000e+01  1.691209859154929582e+05  4.083368709758810837e+02
2.087500000000000000e+01  1.684258333333333430e+05  4.046570621686503273e+02
2.100000000000000000e+01  1.696272463768115849e+05  4.148320289783933390e+02
2.112500000000000000e+01  1.685383098591549206e+05  4.076328382834902868e+02
2.125000000000000000e+01  1.695349275362318731e+05  4.147191284128809343e+02
2.137500000000000000e+01  1.655618309859154979e+05  4.040172944460001645e+02
2.150000000000000000e+01  1.699259722222222190e+05  4.064551713623047249e+02
2.162500000000000000e+01  1.680138157894736796e+05  3.933822151222843786e+02
2.175000000000000000e+01  1.679827536231884151e+05  4.128162863604027848e+02
2.187500000000000000e+01  1.672933783783783729e+05  3.978071053420592307e+02
2.200000000000000000e+01  1.661860869565217290e+05  4.106027045336944070e+02
2.212500000000000000e+01  1.667400000000000000e+05  4.026267916238726343e+02
2.225000000000000000e+01  1.662390000000000000e+05  4.077241714688988168e+02
2.237500000000000000e+01  1.678530985915492929e+05  4.068033559871065563e+02
2.250000000000000000e+01  1.647171014492753602e+05  4.087839353718605366e+02
2.262500000000000000e+01  1.681685915492957574e+05  4.071854857891349866e+02
2.275000000000000000e+01  1.650457971014492796e+05  4.091915995904403758e+02
2.287500000000000000e+01  1.696042465753424622e+05  4.032793188905785087e+02
2.300000000000000000e+01  1.641004166666666570e+05  3.994271795449819251e+02
2.312500000000000000e+01  1.681227397260273865e+05  4.015141168609846432e+02
2.325000000000000000e+01  1.677783333333333430e+05  4.038784768641108371e+02
2.337500000000000000e+01  1.669687323943662050e+05  4.057302799978349981e+02
2.350000000000000000e+01  1.679330000000000000e+05  4.097962908568109697e+02
2.362500000000000000e+01  1.659520000000000000e+05  4.073720658071684966e+02
2.375000000000000000e+01  1.673364788732394227e+05  4.061768420997477165e+02
2.387500000000000000e+01  1.627675000000000000e+05  4.093345568257885247e+02
2.400000000000000000e+01  1.681234722222222190e+05  4.042936751565684972e+02
2.412500000000000000e+01  1.627050000000000000e+05  4.033670784781524503e+02
2.425000000000000000e+01  1.702146376811594237e+05  4.155496558633308837e+02
2.437500000000000000e+01  1.635806666666666861e+05  3.907368537633594201e+02
2.450000000000000000e+01  1.655202739726027357e+05  3.983943660904766944e+02
2.462500000000000000e+01  1.654410000000000000e+05  4.067443914794645821e+02
2.475000000000000000e+01  1.641510000000000000e+05  4.051555256935292277e+02
2.487500000000000000e+01  1.664856338028168830e+05  4.051428954345455509e+02
2.500000000000000000e+01  1.639498591549295816e+05  4.020456518967534976e+02
2.512500000000000000e+01  1.668302898550724785e+05  4.113977639011023371e+02
2.525000000000000000e+01  1.622905633802817028e+05  4.000059759521860201e+02
2.537500000000000000e+01  1.685390000000000000e+05  4.105350167768883693e+02
2.550000000000000000e+01  1.630720000000000000e+05  4.038217428519668601e+02
2.562500000000000000e+01  1.651619117647058738e+05  4.123343486200283792e+02
2.575000000000000000e+01  1.616617333333333372e+05  3.884382633629756469e+02
2.587500000000000000e+01  1.668856756756756804e+05  3.973220712996640600e+02
2.600000000000000000e+01  1.648246376811594237e+05  4.089173517302778009e+02
2.612500000000000000e+01  1.638563888888889051e+05  3.991300822173946585e+02
2.625000000000000000e+01  1.637015942028985301e+05  4.075218780328294770e+02
2.637500000000000000e+01  1.622412676056337950e+05  3.999452204108683873e+02
2.650000000000000000e+01  1.657126760563380376e+05  4.042013046780426180e+02
2.662500000000000000e+01  1.615143478260869451e+05  4.047902363888491664e+02
2.675000000000000000e+01  1.647952173913043516e+05  4.088808553542660889e+02
2.687500000000000000e+01  1.622410000000000000e+05  4.027915093444746617e+02
2.700000000000000000e+01  1.651690000000000000e+05  4.064098916119045271e+02
2.712500000000000000e+01  1.619270270270270412e+05  3.913747753181032749e+02
2.725000000000000000e+01  1.640090277777777810e+05  3.993159418939059719e+02
2.737500000000000000e+01  1.635379729729729588e+05  3.933167712442497645e+02
2.750000000000000000e+01  1.618901492537313607e+05  4.112650749904293548e+02
2.762500000000000000e+01  1.625750000000000000e+05  3.975663815990704961e+02
2.775000000000000000e+01  1.620569014084507071e+05  3.997179128326845898e+02
2.787500000000000000e+01  1.627013043478260806e+05  4.062748998718854523e+02
2.800000000000000000e+01  1.599269999999999709e+05  3.999087395894218275e+02
2.812500000000000000e+01  1.644536764705882233e+05  4.114493277524687755e+02
2.825000000000000000e+01  1.597110000000000000e+05  3.996385867255563085e+02
2.837500000000000000e+01  1.636340000000000000e+05  4.045169959346578707e+02
2.850000000000000000e+01  1.585395945945945859e+05  3.872594566678398564e+02
2.862500000000000000e+01  1.618380555555555620e+05  3.966642837619057218e+02
2.875000000000000000e+01  1.610700000000000000e+05  3.957219141434213725e+02
2.887500000000000000e+01  1.613210000000000000e+05  4.016478557144305341e+02
2.900000000000000000e+01  1.617324637681159365e+05  4.050634672719553464e+02
2.912500000000000000e+01  1.944688732394366234e+05  4.378697009668476881e+02
2.925000000000000000e+01  1.502742253521126986e+05  3.849125705493023020e+02
2.937500000000000000e+01  1.540247058823529514e+05  3.981894577844287824e+02
2.950000000000000000e+01  1.583040000000000000e+05  3.978743520258625495e+02
2.962500000000000000e+01  1.547790000000000000e+05  3.934196233031595966e+02
2.975000000000000000e+01  1.629802898550724785e+05  4.066230724410234529e+02
2.987500000000000000e+01  1.552287837837837869e+05  3.831945181163087568e+02
3.000000000000000000e+01  1.557033333333333430e+05  3.890735672604100159e+02
3.012500000000000000e+01  1.611079166666666570e+05  3.957684888407101198e+02
3.025000000000000000e+01  1.609020000000000000e+05  4.011259153931592891e+02
3.037500000000000000e+01  1.608170000000000000e+05  4.010199496284442944e+02
3.050000000000000000e+01  1.577160000000000000e+05  3.971347378409498674e+02
3.062500000000000000e+01  1.597400000000000000e+05  3.996748678613655557e+02
3.075000000000000000e+01  1.584440000000000000e+05  3.980502480843342141e+02
3.087500000000000000e+01  1.616685507246376656e+05  4.049834233631146390e+02
3.100000000000000000e+01  1.573813043478260806e+05  3.995775179068951957e+02
3.112500000000000000e+01  1.626526086956521904e+05  4.062140973423339005e+02
3.125000000000000000e+01  1.577368493150684808e+05  3.889145317956716781e+02
3.137500000000000000e+01  1.602735135135135206e+05  3.893713912842350737e+02
3.150000000000000000e+01  1.585992957746478787e+05  3.954307813972167196e+02
3.162500000000000000e+01  1.588660000000000000e+05  3.985799794269652239e+02
3.175000000000000000e+01  1.607102777777777810e+05  3.952797786316189672e+02
3.187500000000000000e+01  1.589781159420289914e+05  4.015994853182153292e+02
3.200000000000000000e+01  1.601082608695652161e+05  4.030244042826500959e+02
3.212500000000000000e+01  1.576883098591549206e+05  3.942934792111868205e+02
3.225000000000000000e+01  1.604901492537313607e+05  4.094829365672265453e+02
3.237500000000000000e+01  1.580019999999999709e+05  3.974946540521016800e+02
3.250000000000000000e+01  1.603213043478260806e+05  4.032924515934898295e+02
3.262500000000000000e+01  1.560848648648648523e+05  3.842497171663757172e+02
3.275000000000000000e+01  1.587333802816901589e+05  3.955979004864307171e+02
3.287500000000000000e+01  1.575729166666666570e+05  3.914024670383462308e+02
3.300000000000000000e+01  1.566738028169014142e+05  3.930230648928764481e+02
3.312500000000000000e+01  1.585350000000000000e+05  3.981645388529722140e+02
3.325000000000000000e+01  1.583350000000000000e+05  3.979133071411409901e+02
3.337500000000000000e+01  1.580340000000000000e+05  3.975349041279268363e+02
3.350000000000000000e+01  1.558382608695652161e+05  3.976138659420896033e+02
3.362500000000000000e+01  1.570450000000000000e+05  3.962890359321085043e+02
3.375000000000000000e+01  1.583575000000000000e+05  4.037512520468658295e+02
3.387500000000000000e+01  1.587711594202898559e+05  4.013380005883271906e+02
3.400000000000000000e+01  1.549508333333333430e+05  3.881322500366576946e+02
3.412500000000000000e+01  1.575821333333333314e+05  3.835057467337064736e+02
3.425000000000000000e+01  1.569988405797101441e+05  3.990917013611760353e+02
3.437500000000000000e+01  1.560743661971831170e+05  3.922704879128222046e+02
3.450000000000000000e+01  1.572407042253521213e+05  3.937334712967151518e+02
3.462500000000000000e+01  1.563282608695652161e+05  3.982384811123723694e+02
3.475000000000000000e+01  1.561100000000000000e+05  3.951075802866859590e+02
3.487500000000000000e+01  1.549750704225352092e+05  3.908865857915762376e+02
3.500000000000000000e+01  1.569964179104477807e+05  4.050013682256479797e+02
3.512500000000000000e+01  1.548815942028985301e+05  3.963915425289089285e+02
3.525000000000000000e+01  1.563779710144927376e+05  3.983017931424611788e+02
3.537500000000000000e+01  1.548656338028168830e+05  3.907485479089053229e+02
3.550000000000000000e+01  1.557906756756756804e+05  3.838874289053824782e+02
3.562500000000000000e+01  1.566458108108108281e+05  3.849395662774899733e+02
3.575000000000000000e+01  1.539837681159420172e+05  3.952409605914050417e+02
3.587500000000000000e+01  1.551870422535211255e+05  3.911538179080384907e+02
3.600000000000000000e+01  1.543930000000000000e+05  3.929287467213362106e+02
3.612500000000000000e+01  1.556560000000000000e+05  3.945326348985594223e+02
3.625000000000000000e+01  1.544107352941176505e+05  3.986881331424983728e+02
3.637500000000000000e+01  1.559031884057971183e+05  3.976966870674582992e+02
3.650000000000000000e+01  1.526882608695652161e+05  3.935748140004654374e+02
3.662500000000000000e+01  1.541060294117647281e+05  3.982945639706639440e+02
3.675000000000000000e+01  1.512910000000000000e+05  3.889614376773101299e+02
3.687500000000000000e+01  1.546189473684210679e+05  3.773753944888974274e+02
3.700000000000000000e+01  1.539805555555555620e+05  3.869151301012078648e+02
3.712500000000000000e+01  1.542622535211267532e+05  3.899865968530899636e+02
3.725000000000000000e+01  1.542219999999999709e+05  3.927110897339161966e+02
3.737500000000000000e+01  1.521219999999999709e+05  3.900282041083695503e+02
3.750000000000000000e+01  1.550180000000000000e+05  3.937232530598110429e+02
3.762500000000000000e+01  1.520511594202898559e+05  3.927528477451032245e+02
3.775000000000000000e+01  1.548734782608695386e+05  3.963811567469757620e+02
3.787500000000000000e+01  1.519522388059701480e+05  3.984420539981908291e+02
3.800000000000000000e+01  1.538030000000000000e+05  3.921772558423040209e+02
3.812500000000000000e+01  1.518949275362318731e+05  3.925510199931042621e+02
3.825000000000000000e+01  1.557409090909090883e+05  3.762746930476445755e+02
3.837500000000000000e+01  1.530190140845070418e+05  3.884119162732203563e+02
3.850000000000000000e+01  1.532500000000000000e+05  3.914715826212676575e+02
3.862500000000000000e+01  1.530032394366197404e+05  3.883918951694114412e+02
3.875000000000000000e+01  1.513927536231884151e+05  3.919015839490641042e+02
3.887500000000000000e+01  1.534380000000000000e+05  3.917116286249362815e+02
3.900000000000000000e+01  1.509900000000000000e+05  3.885743172161536449e+02
3.912500000000000000e+01  1.524833333333333430e+05  3.933106109870109321e+02
3.925000000000000000e+01  1.523750000000000000e+05  3.903524048856366448e+02
3.937500000000000000e+01  1.541824242424242257e+05  4.043844873266652939e+02
3.950000000000000000e+01  1.507272463768115849e+05  3.910392553476598323e+02
3.962500000000000000e+01  1.544050666666666802e+05  3.796200673773128642e+02
3.975000000000000000e+01  1.521215068493150466e+05  3.819292317624898487e+02
3.987500000000000000e+01  1.527202816901408369e+05  3.880325911662332032e+02
4.000000000000000000e+01  1.534360000000000000e+05  3.917090757181916274e+02
4.012500000000000000e+01  1.526130000000000000e+05  3.906571386778948636e+02
4.025000000000000000e+01  1.520136231884057925e+05  3.927043661288266776e+02
4.037500000000000000e+01  1.486346478873239539e+05  3.828070037792307971e+02
4.050000000000000000e+01  1.553573913043478096e+05  3.969999341310563068e+02
4.062500000000000000e+01  1.496795588235293981e+05  3.925326722566254602e+02
4.075000000000000000e+01  1.546726086956521904e+05  3.961240218741273225e+02
4.087500000000000000e+01  1.512216176470588252e+05  3.945495054916898994e+02
4.100000000000000000e+01  1.521204054054054141e+05  3.793384778649498230e+02
4.112500000000000000e+01  1.504465277777777810e+05  3.824492875685982654e+02
4.125000000000000000e+01  1.517531944444444380e+05  3.841065320091533977e+02
4.137500000000000000e+01  1.511122535211267532e+05  3.859843415505836788e+02
4.150000000000000000e+01  1.506060000000000000e+05  3.880798886827298588e+02
4.162500000000000000e+01  1.524833333333333430e+05  3.933106109870109321e+02
4.175000000000000000e+01  1.507079710144927376e+05  3.910142510285992330e+02
4.187500000000000000e+01  1.526385507246376656e+05  3.935107414463935243e+02
4.200000000000000000e+01  1.499359420289855043e+05  3.900114443142306868e+02
4.212500000000000000e+01  1.543232352941176505e+05  3.985751547440441982e+02
4.225000000000000000e+01  1.516828985507246398e+05  3.922769448084750934e+02
4.237500000000000000e+01  1.530124324324324552e+05  3.804490637901313903e+02
4.250000000000000000e+01  1.509324657534246799e+05  3.804336495124558724e+02
4.262500000000000000e+01  1.541163380281690042e+05  3.898021105380074118e+02
4.275000000000000000e+01  1.546330000000000000e+05  3.932340270119054821e+02
4.287500000000000000e+01  1.541064788732394227e+05  3.897896420972373335e+02
4.300000000000000000e+01  1.550976811594202882e+05  3.966679639698567712e+02
4.312500000000000000e+01  1.560117391304347839e+05  3.978351151268290096e+02
4.325000000000000000e+01  1.556952173913043516e+05  3.974313397522461173e+02
4.337500000000000000e+01  1.544250724637681269e+05  3.958069188281434663e+02
4.350000000000000000e+01  1.586362318840579828e+05  4.011674310166075657e+02
4.362500000000000000e+01  1.569055223880597041e+05  4.048841103247881392e+02
4.375000000000000000e+01  1.645830666666666511e+05  3.919322163617354704e+02
4.387500000000000000e+01  1.752732876712328871e+05  4.099637494329558649e+02
4.400000000000000000e+01  1.385066666666666861e+05  3.669594790426583586e+02
4.412500000000000000e+01  1.617568115942028817e+05  4.050939560293514887e+02
4.425000000000000000e+01  1.533852173913043516e+05  3.944720415395693180e+02
4.437500000000000000e+01  1.567850000000000000e+05  3.959608566512604284e+02
4.450000000000000000e+01  1.622600000000000000e+05  4.057235440578948555e+02
4.462500000000000000e+01  1.604197101449275215e+05  4.034162037900327391e+02
4.475000000000000000e+01  1.593443478260869451e+05  4.020617940073118461e+02
4.487500000000000000e+01  1.603923188405797118e+05  4.033817611154328233e+02
4.500000000000000000e+01  1.603304347826086741e+05  4.033039353542334879e+02
4.512500000000000000e+01  1.617364383561644063e+05  3.938143412955153053e+02
4.525000000000000000e+01  1.574654794520547730e+05  3.885798442598175484e+02
4.537500000000000000e+01  1.579870422535211255e+05  3.946667868522972071e+02
4.550000000000000000e+01  1.582581690140845021e+05  3.950052920127924949e+02
4.562500000000000000e+01  1.556171014492753602e+05  3.973316269316280227e+02
4.575000000000000000e+01  1.570390000000000000e+05  3.962814656276520964e+02
4.587500000000000000e+01  1.565088405797101441e+05  3.984684236499584244e+02
4.600000000000000000e+01  1.547263768115942075e+05  3.961928672625660397e+02
4.612500000000000000e+01  1.528861764705882233e+05  3.967150472564951542e+02
4.625000000000000000e+01  1.554950000000000000e+05  3.943285432225265481e+02
4.637500000000000000e+01  1.497845588235293981e+05  3.926703286781691986e+02
4.650000000000000000e+01  1.528660000000000000e+05  3.909808179437962963e+02
4.662500000000000000e+01  1.484276315789473883e+05  3.697426952149561430e+02
4.675000000000000000e+01  1.493600000000000000e+05  3.864712149694980781e+02
4.687500000000000000e+01  1.491768055555555620e+05  3.808319910422895873e+02
4.700000000000000000e+01  1.482934782608695386e+05  3.878693840782357825e+02
4.712500000000000000e+01  1.483820000000000000e+05  3.852038421407553983e+02
4.725000000000000000e+01  1.453930000000000000e+05  3.813043403896682548e+02
4.737500000000000000e+01  1.483680000000000000e+05  3.851856695153650207e+02
4.750000000000000000e+01  1.440136764705882233e+05  3.850316517344649014e+02
4.762500000000000000e+01  1.487819117647058738e+05  3.913538684439196231e+02
4.775000000000000000e+01  1.430975000000000000e+05  3.838049634905729022e+02
4.787500000000000000e+01  1.504340579710144957e+05  3.906587535301428034e+02
4.800000000000000000e+01  1.456036842105263204e+05  3.662084877630435926e+02
4.812500000000000000e+01  1.471798611111110949e+05  3.782744131391950759e+02
4.825000000000000000e+01  1.458474647887323808e+05  3.792008374777416861e+02
4.837500000000000000e+01  1.445860000000000000e+05  3.802446580821353450e+02
4.850000000000000000e+01  1.460702816901408369e+05  3.794903869388684257e+02
4.862500000000000000e+01  1.465333333333333430e+05  3.855606370351075043e+02
4.875000000000000000e+01  1.462660294117647281e+05  3.880308898184359805e+02
4.887500000000000000e+01  1.440044117647058738e+05  3.850192665830352894e+02
4.900000000000000000e+01  1.456525000000000000e+05  3.872162148707406004e+02
4.912500000000000000e+01  1.440681159420289914e+05  3.823036223361397674e+02
4.925000000000000000e+01  1.467732835820895561e+05  3.915931838693433633e+02
4.937500000000000000e+01  1.433456410256410309e+05  3.586691009793987632e+02
4.950000000000000000e+01  1.456758333333333430e+05  3.763366609930627078e+02
4.962500000000000000e+01  1.437484507042253390e+05  3.764622486225792386e+02
4.975000000000000000e+01  1.454220833333333430e+05  3.760087512525719262e+02
4.987500000000000000e+01  1.443554411764706019e+05  3.854882481300393238e+02
5.000000000000000000e+01  1.442902898550724785e+05  3.825982925682764630e+02
5.012500000000000000e+01  1.445337681159420172e+05  3.829209584333004841e+02
5.025000000000000000e+01  1.440085294117647281e+05  3.850247711439662908e+02
5.037500000000000000e+01  1.451944117647058738e+05  3.866068230646458801e+02
5.050000000000000000e+01  1.448022058823529514e+05  3.860843098219058902e+02
5.062500000000000000e+01  1.451892647058823495e+05  3.865999705085760638e+02
5.075000000000000000e+01  1.422654545454545296e+05  3.596279068773149561e+02
5.087500000000000000e+01  1.437916666666666570e+05  3.738949768366829858e+02
5.100000000000000000e+01  1.454513698630137078e+05  3.734620680966132795e+02
5.112500000000000000e+01  1.430495652173912968e+05  3.809497963275360348e+02
5.125000000000000000e+01  1.437890000000000000e+05  3.791952003915661180e+02
5.137500000000000000e+01  1.402882352941176505e+05  3.800188940850068775e+02
5.150000000000000000e+01  1.451465217391304614e+05  3.837318002432928665e+02
5.162500000000000000e+01  1.427794117647058738e+05  3.833781504316249880e+02
5.175000000000000000e+01  1.449527536231884151e+05  3.834755770169098810e+02
5.187500000000000000e+01  1.415014492753623053e+05  3.788828247849646687e+02
5.200000000000000000e+01  1.448114705882352719e+05  3.860966608090379282e+02
5.212500000000000000e+01  1.412181818181818235e+05  3.583017796345088755e+02
5.225000000000000000e+01  1.431986111111110949e+05  3.731231323753330003e+02
5.237500000000000000e+01  1.432949295774647908e+05  3.758679171367406866e+02
5.250000000000000000e+01  1.438865217391304614e+05  3.820626043574445703e+02
5.262500000000000000e+01  1.444160000000000000e+05  3.800210520484358767e+02
5.275000000000000000e+01  1.427433823529411748e+05  3.833297759475875637e+02
5.287500000000000000e+01  1.448004225352112553e+05  3.778372400442984258e+02
5.300000000000000000e+01  1.415760294117646990e+05  3.817591259902198999e+02
5.312500000000000000e+01  1.454721739130434871e+05  3.841620312948624019e+02
5.325000000000000000e+01  1.400833823529411748e+05  3.797413354296712100e+02
5.337500000000000000e+01  1.464544117647058738e+05  3.882806903049233824e+02
5.350000000000000000e+01  1.414896000000000058e+05  3.633964226571307563e+02
5.362500000000000000e+01  1.454878082191780850e+05  3.735088448704690904e+02
5.375000000000000000e+01  1.429478873239436653e+05  3.754124888682505343e+02
5.387500000000000000e+01  1.448766666666666570e+05  3.833749189793398955e+02
5.400000000000000000e+01  1.467101408450704184e+05  3.803206552807354797e+02
5.412500000000000000e+01  1.432534782608695677e+05  3.812212161291250823e+02
5.425000000000000000e+01  1.466063768115942075e+05  3.856567215935863828e+02
5.437500000000000000e+01  1.432920588235293981e+05  3.840657901217817312e+02
5.450000000000000000e+01  1.484426086956521904e+05  3.880643643142997803e+02
5.462500000000000000e+01  1.405908823529411748e+05  3.804285850254923389e+02
5.475000000000000000e+01  1.503589552238805918e+05  3.963476324595533242e+02
5.487500000000000000e+01  1.421046052631578932e+05  3.617814542470621291e+02
5.500000000000000000e+01  1.436582191780821886e+05  3.711528751688530292e+02
5.512500000000000000e+01  1.442187323943662050e+05  3.770775552089157259e+02
5.525000000000000000e+01  1.465550000000000000e+05  3.828250253052952985e+02
5.537500000000000000e+01  1.476150000000000000e+05  3.842069754702535533e+02
5.550000000000000000e+01  1.448736231884057925e+05  3.833708921081176868e+02
5.562500000000000000e+01  1.465484507042253390e+05  3.801110206482447325e+02
5.575000000000000000e+01  1.446591176470588252e+05  3.858935054880487314e+02
5.587500000000000000e+01  1.505916176470588252e+05  3.937267870896928343e+02
5.600000000000000000e+01  1.466980597014925443e+05  3.914928218229202912e+02
5.612500000000000000e+01  1.532958823529411748e+05  3.972462520592063129e+02
5.625000000000000000e+01  1.480518918918918935e+05  3.742313280910119602e+02
5.637500000000000000e+01  1.516559459459459176e+05  3.787589302526939719e+02
5.650000000000000000e+01  1.491167605633802596e+05  3.834273392692639959e+02
5.662500000000000000e+01  1.469960563380281674e+05  3.806910681213203134e+02
5.675000000000000000e+01  1.476140000000000000e+05  3.842056740861592061e+02
5.687500000000000000e+01  1.463650000000000000e+05  3.825767896775757322e+02
5.700000000000000000e+01  1.496265217391304614e+05  3.896088064381890490e+02
5.712500000000000000e+01  1.412538235294117767e+05  3.813244651879355729e+02
5.725000000000000000e+01  1.464369117647058738e+05  3.882574915668536732e+02
5.737500000000000000e+01  1.431839705882353010e+05  3.839209083142392274e+02
5.750000000000000000e+01  1.485138805970149406e+05  3.939083089344874224e+02
5.762500000000000000e+01  1.395391666666666861e+05  3.683246919549430913e+02
5.775000000000000000e+01  1.418936842105263204e+05  3.615128645657543416e+02
5.787500000000000000e+01  1.411012676056337950e+05  3.729797927614461628e+02
5.800000000000000000e+01  1.417101388888889051e+05  3.711788600418608439e+02
5.812500000000000000e+01  1.384900000000000000e+05  3.721424458456734783e+02
5.825000000000000000e+01  1.383360000000000000e+05  3.719354782754664939e+02
5.837500000000000000e+01  1.391002941176470777e+05  3.784064999953810684e+02
5.850000000000000000e+01  1.501263235294117767e+05  3.931180530492310368e+02
5.862500000000000000e+01  8.946731343283582828e+04  3.057340552535303573e+02
5.875000000000000000e+01  1.496549275362318731e+05  3.896457872600582846e+02
5.887500000000000000e+01  1.594349253731343488e+05  4.081345398623446385e+02
5.900000000000000000e+01  1.472188732394366234e+05  3.809794849890781165e+02
5.912500000000000000e+01  1.404890909090909117e+05  3.573756502224246674e+02
5.925000000000000000e+01  1.411190277777777810e+05  3.704039076251094684e+02
5.937500000000000000e+01  1.390416901408450794e+05  3.702476961128718358e+02
5.950000000000000000e+01  1.420200000000000000e+05  3.768554099386129224e+02
5.962500000000000000e+01  1.377326086956521904e+05  3.738030677500617571e+02
5.975000000000000000e+01  1.410520588235293981e+05  3.810520289788880177e+02
5.987500000000000000e+01  1.360789855072463688e+05  3.715523445189066933e+02
6.000000000000000000e+01  1.432786764705882233e+05  3.840478553387733882e+02
6.012500000000000000e+01  1.366002985074626922e+05  3.777786783077046948e+02
6.025000000000000000e+01  1.405792753623188473e+05  3.776462050182303756e+02
6.037500000000000000e+01  1.370338805970149115e+05  3.783777556845556092e+02
6.050000000000000000e+01  1.431776543209876691e+05  3.517581205020363768e+02
6.062500000000000000e+01  1.390219444444444380e+05  3.676414336897190651e+02
6.075000000000000000e+01  1.381930000000000000e+05  3.717431909262091949e+02
6.087500000000000000e+01  1.412120000000000000e+05  3.757818516107450364e+02
6.100000000000000000e+01  1.385188405797101441e+05  3.748684569397665314e+02
6.112500000000000000e+01  1.409627536231884151e+05  3.781609341027910887e+02
6.125000000000000000e+01  1.354207462686567160e+05  3.761440705012155377e+02
6.137500000000000000e+01  1.411534782608695677e+05  3.784166762239217405e+02
6.150000000000000000e+01  1.366410294117646990e+05  3.750465080733229115e+02
6.162500000000000000e+01  1.435710447761194082e+05  3.872978169572173783e+02
6.175000000000000000e+01  1.357837681159420172e+05  3.711490924322387741e+02
6.187500000000000000e+01  1.390803750000000000e+05  3.488485747785133526e+02
6.200000000000000000e+01  1.383705555555555620e+05  3.667791283761191039e+02
6.212500000000000000e+01  1.385760000000000000e+05  3.722579750656794317e+02
6.225000000000000000e+01  1.395630000000000000e+05  3.735813164493106910e+02
6.237500000000000000e+01  1.365329411764706019e+05  3.748981407221900781e+02
6.250000000000000000e+01  1.415572463768115849e+05  3.789575182947657481e+02
6.262500000000000000e+01  1.375652173913043516e+05  3.735758506569674751e+02
6.275000000000000000e+01  1.404271014492753602e+05  3.774417529004948619e+02
6.287500000000000000e+01  1.368886567164178996e+05  3.781772065506678473e+02
6.300000000000000000e+01  1.406351470588235243e+05  3.804884688311786363e+02
6.312500000000000000e+01  1.356011594202898559e+05  3.708994386822212732e+02
6.325000000000000000e+01  1.397648717948717822e+05  3.541609989104445049e+02
6.337500000000000000e+01  1.385105555555555620e+05  3.669646306164352723e+02
6.350000000000000000e+01  1.385211267605633766e+05  3.695539540787019632e+02
6.362500000000000000e+01  1.391244927536231990e+05  3.756870902094620988e+02
6.375000000000000000e+01  1.362710000000000000e+05  3.691490213992175882e+02
6.387500000000000000e+01  1.398315942028985592e+05  3.766405966520587754e+02
6.400000000000000000e+01  1.372782352941176505e+05  3.759199787851491692e+02
6.412500000000000000e+01  1.387328985507246398e+05  3.751579937424378954e+02
6.425000000000000000e+01  1.350454411764706019e+05  3.728503264273145987e+02
6.437500000000000000e+01  1.433488405797101441e+05  3.813480824763664714e+02
6.450000000000000000e+01  1.341390909090909117e+05  3.771852764655179158e+02
6.462500000000000000e+01  1.384718181818181765e+05  3.548006074887417185e+02
6.475000000000000000e+01  1.385750684931506694e+05  3.645273688828659715e+02
6.487500000000000000e+01  1.387863380281690042e+05  3.699075571988799993e+02
6.500000000000000000e+01  1.381980000000000000e+05  3.717499159381209779e+02
6.512500000000000000e+01  1.385685507246376947e+05  3.749357152769154027e+02
6.525000000000000000e+01  1.395570000000000000e+05  3.735732859828175947e+02
6.537500000000000000e+01  1.374475362318840635e+05  3.734160273884974117e+02
6.550000000000000000e+01  1.373667647058823495e+05  3.760411728359277390e+02
6.562500000000000000e+01  1.362189855072463688e+05  3.717434245592025945e+02
6.575000000000000000e+01  1.416288059701492602e+05  3.846692011289321727e+02
6.587500000000000000e+01  1.315989393939393922e+05  3.735968852794972008e+02
6.600000000000000000e+01  1.391222368421052524e+05  3.579649457063787281e+02
6.612500000000000000e+01  1.367445333333333256e+05  3.572509357735975755e+02
6.625000000000000000e+01  1.380932394366197113e+05  3.689827424599787946e+02
6.637500000000000000e+01  1.361590000000000000e+05  3.689972899629481162e+02
6.650000000000000000e+01  1.371610000000000000e+05  3.703525347557377927e+02
6.662500000000000000e+01  1.389398550724637462e+05  3.754377127573500843e+02
6.675000000000000000e+01  1.345780000000000000e+05  3.668487426719628388e+02
6.687500000000000000e+01  1.393586764705882233e+05  3.787577868145609159e+02
6.700000000000000000e+01  1.360256716417910357e+05  3.769832534173038425e+02
6.712500000000000000e+01  1.413498507462686684e+05  3.842901879320856438e+02
6.725000000000000000e+01  1.332089393939393922e+05  3.758752564989048324e+02
6.737500000000000000e+01  1.425494736842105340e+05  3.623473028284273596e+02
6.750000000000000000e+01  1.377450666666666511e+05  3.585555218124833345e+02
6.762500000000000000e+01  1.389490140845070418e+05  3.701242841494186564e+02
6.775000000000000000e+01  1.357766666666666861e+05  3.633250508739971565e+02
6.787500000000000000e+01  1.357090000000000000e+05  3.683870247443576886e+02
6.800000000000000000e+01  1.392918840579710086e+05  3.759130311858487516e+02
6.812500000000000000e+01  1.359770000000000000e+05  3.687505932198617984e+02
6.825000000000000000e+01  1.390994029850746156e+05  3.812187488332889984e+02
6.837500000000000000e+01  1.324050000000000000e+05  3.747393033223836483e+02
6.850000000000000000e+01  1.440182089552238758e+05  3.879004839847548851e+02
6.862500000000000000e+01  1.368991044776119525e+05  3.781916380961683899e+02
6.875000000000000000e+01  1.385924324324324261e+05  3.620786511218894361e+02
6.887500000000000000e+01  1.365469736842105340e+05  3.546363622726572657e+02
6.900000000000000000e+01  1.378825000000000000e+05  3.661317120320985623e+02
6.912500000000000000e+01  1.384954929577464936e+05  3.695197588923530816e+02
6.925000000000000000e+01  1.377057746478873305e+05  3.684647292416198638e+02
6.937500000000000000e+01  1.389530000000000000e+05  3.727640004077646836e+02
6.950000000000000000e+01  1.363970588235293981e+05  3.747115384188502389e+02
6.962500000000000000e+01  1.381162686567164201e+05  3.798691606245291155e+02
6.975000000000000000e+01  1.336446268656716275e+05  3.736692583499161060e+02
6.987500000000000000e+01  1.456595522388059762e+05  3.901046292240532694e+02
7.000000000000000000e+01  1.334910606060606078e+05  3.762730762564853535e+02
7.012500000000000000e+01  1.432152054794520664e+05  3.705801520452566820e+02
7.025000000000000000e+01  1.355334615384615317e+05  3.487586467578444172e+02
7.037500000000000000e+01  1.388876712328767171e+05  3.649382943957198790e+02
7.050000000000000000e+01  1.381326760563380085e+05  3.690354256811359051e+02
7.062500000000000000e+01  1.403184507042253390e+05  3.719437249062331148e+02
7.075000000000000000e+01  1.411745588235293981e+05  3.812174598967153543e+02
7.087500000000000000e+01  1.359811764705882233e+05  3.741398439586062636e+02
7.100000000000000000e+01  1.416361194029850885e+05  3.846791327810082635e+02
7.112500000000000000e+01  1.394870149253731361e+05  3.817495280427175999e+02
7.125000000000000000e+01  1.441101492537313607e+05  3.880242808174488687e+02
7.137500000000000000e+01  1.339026865671641717e+05  3.740298507462686644e+02
7.150000000000000000e+01  1.451400000000000000e+05  3.809724399480886063e+02
7.162500000000000000e+01  1.397744444444444380e+05  3.475524849095512536e+02
7.175000000000000000e+01  1.425132876712328871e+05  3.696709039388824749e+02
7.187500000000000000e+01  1.392066666666666861e+05  3.678856001732261802e+02
7.200000000000000000e+01  1.413594202898550720e+05  3.786926293716748546e+02
7.212500000000000000e+01  1.438891176470588252e+05  3.848651069128392237e+02
7.225000000000000000e+01  1.393988235294117767e+05  3.788123399881999944e+02
7.237500000000000000e+01  1.437664179104477807e+05  3.875612470370913911e+02
7.250000000000000000e+01  1.394163235294117767e+05  3.788361171182309590e+02
7.262500000000000000e+01  1.456731343283582246e+05  3.901228165396787517e+02
7.275000000000000000e+01  1.362398507462686684e+05  3.772799260108182011e+02
7.287500000000000000e+01  1.477783582089552074e+05  3.929316729678284332e+02
7.300000000000000000e+01  1.406500000000000000e+05  3.423570261194201976e+02
7.312500000000000000e+01  1.846887671232876601e+05  4.208311036383288979e+02
7.325000000000000000e+01  1.593160563380281674e+05  3.963233127392219330e+02
7.337500000000000000e+01  8.332231884057971183e+04  2.907402426201934986e+02
7.350000000000000000e+01  1.450451470588235534e+05  3.864080496002221707e+02
7.362500000000000000e+01  1.408688235294117767e+05  3.808044435421588787e+02
7.375000000000000000e+01  1.432725000000000000e+05  3.840395774641248181e+02
7.387500000000000000e+01  1.430172058823529223e+05  3.836972690685424254e+02
7.400000000000000000e+01  1.473207462686567160e+05  3.923228231878932775e+02
7.412500000000000000e+01  1.378258208955223963e+05  3.794695327806367686e+02
7.425000000000000000e+01  1.511728358208955033e+05  3.974188832555642534e+02
7.437500000000000000e+01  1.439216867469879508e+05  3.483959468919130700e+02
7.450000000000000000e+01  1.461193243243243196e+05  3.717808258489878313e+02
7.462500000000000000e+01  1.445870000000000000e+05  3.802459730227264458e+02
7.475000000000000000e+01  1.439737681159420172e+05  3.821784196752198000e+02
7.487500000000000000e+01  1.484202898550724785e+05  3.880351898328606808e+02
7.500000000000000000e+01  1.419692647058823495e+05  3.822889369506772823e+02
7.512500000000000000e+01  1.535110294117647281e+05  3.975249170663158793e+02
7.525000000000000000e+01  1.428154411764706019e+05  3.834265188125616532e+02
7.537500000000000000e+01  1.530973134328357992e+05  3.999405168514196589e+02
7.550000000000000000e+01  1.386267647058823495e+05  3.777618594979507520e+02
7.562500000000000000e+01  1.555723880597015086e+05  4.031604096178966756e+02
7.575000000000000000e+01  1.428086419753086520e+05  3.513045342450491830e+02
7.587500000000000000e+01  1.490961643835616414e+05  3.781123176403546609e+02
7.600000000000000000e+01  1.444139436619718326e+05  3.773326708031854650e+02
7.612500000000000000e+01  1.471288405797101441e+05  3.863432963273689893e+02
7.625000000000000000e+01  1.523352173913043516e+05  3.931195418255004483e+02
7.637500000000000000e+01  1.444373913043478096e+05  3.827932690506689255e+02
7.650000000000000000e+01  1.545867647058823495e+05  3.989153221625553556e+02
7.662500000000000000e+01  1.431561764705882233e+05  3.838836441542345028e+02
7.675000000000000000e+01  1.560155882352941262e+05  4.007546406555018734e+02
7.687500000000000000e+01  1.383795522388059762e+05  3.802310502744119276e+02
7.700000000000000000e+01  1.582381818181818235e+05  4.096686156586166589e+02
7.712500000000000000e+01  1.411953164556962147e+05  3.537086005098935857e+02
7.725000000000000000e+01  1.553952702702702663e+05  3.833999555703374540e+02
7.737500000000000000e+01  1.474384722222222190e+05  3.786066020355934256e+02
7.750000000000000000e+01  1.494780000000000000e+05  3.866238482039099722e+02
7.762500000000000000e+01  1.543855072463768010e+05  3.957562107736144412e+02
7.775000000000000000e+01  1.487753623188405763e+05  3.884990694842500147e+02
7.787500000000000000e+01  1.501134782608695386e+05  3.902422784845642809e+02
7.800000000000000000e+01  1.464605882352941262e+05  3.882888777639087721e+02
7.812500000000000000e+01  1.568061764705882233e+05  4.017687429820421698e+02
7.825000000000000000e+01  1.407933333333333139e+05  3.864275645269920005e+02
7.837500000000000000e+01  1.597575000000000000e+05  4.180128773435096150e+02
7.850000000000000000e+01  1.461600000000000000e+05  3.598733954594221700e+02
7.862500000000000000e+01  1.537620000000000000e+05  3.788287211920447817e+02
7.875000000000000000e+01  1.497650000000000000e+05  3.815820502999467863e+02
7.887500000000000000e+01  1.489688732394366234e+05  3.832371590741419709e+02
7.900000000000000000e+01  1.550236231884057925e+05  3.965732496841527563e+02
7.912500000000000000e+01  1.499890000000000000e+05  3.872841334214455173e+02
7.925000000000000000e+01  1.568689705882352719e+05  4.018491804655453734e+02
7.937500000000000000e+01  1.489173913043478096e+05  3.886844663306339385e+02
7.950000000000000000e+01  1.536583582089552074e+05  4.006726634091550636e+02
7.962500000000000000e+01  1.481834375000000000e+05  4.025861830287087741e+02
7.975000000000000000e+01  1.570285937500000000e+05  4.144273451572211115e+02
7.987500000000000000e+01  1.492545454545454704e+05  3.683557389443296302e+02
8.000000000000000000e+01  1.531860256410256552e+05  3.707757251975811528e+02
8.012500000000000000e+01  1.522013888888889051e+05  3.846733322325115410e+02
8.025000000000000000e+01  1.532086111111110949e+05  3.859440585862472517e+02
8.037500000000000000e+01  1.594080000000000000e+05  3.992593142307390508e+02
8.050000000000000000e+01  1.429510000000000000e+05  3.780886139518088953e+02
8.062500000000000000e+01  1.587052173913043516e+05  4.012546485782701779e+02
8.075000000000000000e+01  1.442380882352941262e+05  3.853315260241456599e+02
8.087500000000000000e+01  1.681235937500000000e+05  4.288183539263011994e+02
8.100000000000000000e+01  1.454425000000000000e+05  3.988455018863820669e+02
8.112500000000000000e+01  1.616135937500000000e+05  4.204341424813908930e+02
8.125000000000000000e+01  1.490530263157894951e+05  3.705208255050773687e+02
8.137500000000000000e+01  1.540752500000000000e+05  3.671727709811826230e+02
8.150000000000000000e+01  1.560971232876712456e+05  3.868878041701174197e+02
8.162500000000000000e+01  1.551326388888889051e+05  3.883598832523167630e+02
8.175000000000000000e+01  1.612100000000000000e+05  3.986720915987452827e+02
8.187500000000000000e+01  1.483861971830985858e+05  3.824869288536538079e+02
8.200000000000000000e+01  1.617963768115942075e+05  4.051434953665789749e+02
8.212500000000000000e+01  1.460057812500000000e+05  3.996170957831853343e+02
8.225000000000000000e+01  1.640362500000000000e+05  4.235736635315042804e+02
8.237500000000000000e+01  1.486373437500000000e+05  4.032023000015780099e+02
8.250000000000000000e+01  1.643501562500000000e+05  4.239787534752626357e+02
8.262500000000000000e+01  1.520208219178082072e+05  3.818028167524306014e+02
8.275000000000000000e+01  1.577358333333333430e+05  3.625555512990771945e+02
8.287500000000000000e+01  1.570081333333333314e+05  3.828066410662757448e+02
8.300000000000000000e+01  1.515327397260273865e+05  3.811894107403486487e+02
8.312500000000000000e+01  1.631641666666666570e+05  3.982861141236331264e+02
8.325000000000000000e+01  1.522569014084507071e+05  3.874434642736043202e+02
8.337500000000000000e+01  1.615610937500000000e+05  4.203658481478514659e+02
8.350000000000000000e+01  1.485531250000000000e+05  4.030880554776462077e+02
8.362500000000000000e+01  1.683521875000000000e+05  4.291097820816078183e+02
8.375000000000000000e+01  1.458581250000000000e+05  3.994149774592209496e+02
8.387500000000000000e+01  1.707956250000000000e+05  4.322125806171657132e+02
8.400000000000000000e+01  1.454217187500000000e+05  3.988170067622649526e+02
8.412500000000000000e+01  1.634246808510638366e+05  3.488541678423879375e+02
8.425000000000000000e+01  1.577145454545454413e+05  3.786513693414196950e+02
8.437500000000000000e+01  1.503236000000000058e+05  3.745691213470040566e+02
8.450000000000000000e+01  1.703771232876712456e+05  4.041971347010102704e+02
8.462500000000000000e+01  1.442893846153846243e+05  3.941935667249496191e+02
8.475000000000000000e+01  1.717078125000000000e+05  4.333652269412891087e+02
8.487500000000000000e+01  1.494445312500000000e+05  4.042956295270670921e+02
8.500000000000000000e+01  1.644332812500000000e+05  4.240859598798190859e+02
8.512500000000000000e+01  1.487401562500000000e+05  4.033417234782901346e+02
8.525000000000000000e+01  1.655882812500000000e+05  4.255727700607587849e+02
8.537500000000000000e+01  1.636873437500000000e+05  4.231229516660168883e+02
8.550000000000000000e+01  1.559082291666666570e+05  3.371692212633903978e+02
8.562500000000000000e+01  1.603831250000000000e+05  3.746134466019606180e+02
8.575000000000000000e+01  1.564681818181818235e+05  3.771522261009373551e+02
8.587500000000000000e+01  1.682904477611940238e+05  4.193159202135439045e+02
8.600000000000000000e+01  1.462562500000000000e+05  3.999597147682501372e+02
8.612500000000000000e+01  1.720589062500000000e+05  4.338080551475935067e+02
8.625000000000000000e+01  1.512415625000000000e+05  4.067191401746111978e+02
8.637500000000000000e+01  1.665551562500000000e+05  4.268134277977176225e+02
8.650000000000000000e+01  1.512557812500000000e+05  4.067382582720581468e+02
8.662500000000000000e+01  1.686464062500000000e+05  4.294845827686222037e+02
8.675000000000000000e+01  1.537331250000000000e+05  4.100556126536374677e+02
8.687500000000000000e+01  1.629508999999999942e+05  3.377360359807641430e+02
8.700000000000000000e+01  1.612330588235294272e+05  3.643901289688914744e+02
8.712500000000000000e+01  1.542188732394366234e+05  3.899317586876546784e+02
8.725000000000000000e+01  1.686135937500000000e+05  4.294427996416548581e+02
8.737500000000000000e+01  1.490945312500000000e+05  4.038219205970467556e+02
8.750000000000000000e+01  1.684528125000000000e+05  4.292380035270351186e+02
8.762500000000000000e+01  1.548028125000000000e+05  4.114797396857772469e+02
8.775000000000000000e+01  1.692075000000000000e+05  4.301984462140699179e+02
8.787500000000000000e+01  2.275864062500000000e+05  4.989214686059695509e+02
8.800000000000000000e+01  2.241859375000000000e+04  1.565897088382965876e+02
8.812500000000000000e+01  2.037306250000000000e+05  4.720491193655062716e+02
8.825000000000000000e+01  1.647369724770642060e+05  3.252604894456824809e+02
8.837500000000000000e+01  1.640504819277108181e+05  3.719621326584257872e+02
8.850000000000000000e+01  1.522106250000000000e+05  4.080200621216437185e+02
8.862500000000000000e+01  1.725981250000000000e+05  4.344872831496337540e+02
8.875000000000000000e+01  1.547273437500000000e+05  4.113794261099629352e+02
8.887500000000000000e+01  1.697675000000000000e+05  4.309097389535307343e+02
8.900000000000000000e+01  1.531315625000000000e+05  4.092525460939430673e+02
8.912500000000000000e+01  1.715262500000000000e+05  4.331360478388978663e+02
8.925000000000000000e+01  1.514985937500000000e+05  4.070645979621201604e+02
8.937500000000000000e+01  1.711335937500000000e+05  4.326399983404938325e+02
8.950000000000000000e+01  1.505207812500000000e+05  4.057488194587724024e+02
8.962500000000000000e+01  1.629064062500000000e+05  2.984785434800444364e+02
8.975000000000000000e+01  1.747495312500000000e+05  4.371868019561975416e+02
8.987500000000000000e+01  1.533557812500000000e+05  4.095520549846960989e+02
9.000000000000000000e+01  1.756365625000000000e+05  4.382949808455202856e+02
9.012500000000000000e+01  1.541717187500000000e+05  4.106401312375746215e+02
9.025000000000000000e+01  1.739871875000000000e+05  4.362321472887171581e+02
9.037500000000000000e+01  1.501106250000000000e+05  4.051956269430236830e+02
9.050000000000000000e+01  1.738285937500000000e+05  4.360332836081008736e+02
9.062500000000000000e+01  1.565626562500000000e+05  4.138120409961961172e+02
9.075000000000000000e+01  1.685928125000000000e+05  4.294163348917633130e+02
9.087500000000000000e+01  1.613820000000000000e+05  4.017237857035602246e+02
9.100000000000000000e+01  1.608439344262295053e+05  3.037885833261546509e+02
9.112500000000000000e+01  1.739707812500000000e+05  4.362115793880161050e+02
9.125000000000000000e+01  1.551889062500000000e+05  4.119925560139861318e+02
9.137500000000000000e+01  1.756092187500000000e+05  4.382608618252518795e+02
9.150000000000000000e+01  1.510840625000000000e+05  4.065073103394021246e+02
9.162500000000000000e+01  1.769304687500000000e+05  4.399064675534021944e+02
9.175000000000000000e+01  1.512776562500000000e+05  4.067676689751012304e+02
9.187500000000000000e+01  1.792109375000000000e+05  4.427323829251989764e+02
9.200000000000000000e+01  1.527476562500000000e+05  4.087392188467330243e+02
9.212500000000000000e+01  1.724701562500000000e+05  4.343261831831434847e+02
9.225000000000000000e+01  1.592778409090909117e+05  3.559470220992477039e+02
9.237500000000000000e+01  1.666222115384615317e+05  3.348873922060666359e+02
9.250000000000000000e+01  1.753609375000000000e+05  4.379509394790984516e+02
9.262500000000000000e+01  1.531260937500000000e+05  4.092452382607066284e+02
9.275000000000000000e+01  1.698965625000000000e+05  4.310735032849676145e+02
9.287500000000000000e+01  1.608785937500000000e+05  4.194770099946628648e+02
9.300000000000000000e+01  1.700485937500000000e+05  4.312663323447153516e+02
9.312500000000000000e+01  1.540776562500000000e+05  4.105148432437461565e+02
9.325000000000000000e+01  1.796134375000000000e+05  4.432292829514144614e+02
9.337500000000000000e+01  1.574978125000000000e+05  4.150460606027661470e+02
9.350000000000000000e+01  1.678996052631578932e+05  3.932484879420364905e+02
9.362500000000000000e+01  1.622232926829268399e+05  3.721334419690963387e+02
9.375000000000000000e+01  1.652228571428571304e+05  3.435350441084755175e+02
9.387500000000000000e+01  1.764503125000000000e+05  4.393091500263510056e+02
9.400000000000000000e+01  1.575043750000000000e+05  4.150547074257199824e+02
9.412500000000000000e+01  1.702957812500000000e+05  4.315796690556536532e+02
9.425000000000000000e+01  1.616726562500000000e+05  4.205109603487613299e+02
9.437500000000000000e+01  1.722787500000000000e+05  4.340851101022701641e+02
9.450000000000000000e+01  1.615096875000000000e+05  4.202989658601660494e+02
9.462500000000000000e+01  1.698921875000000000e+05  4.310679529704394781e+02
9.475000000000000000e+01  1.605159154929577198e+05  3.978129308491660936e+02
9.487500000000000000e+01  1.704070666666666802e+05  3.988064637835695407e+02
9.500000000000000000e+01  1.666115189873417839e+05  3.842270941282012018e+02
9.512500000000000000e+01  1.611230526315789321e+05  3.445609515129061151e+02
9.525000000000000000e+01  1.753850000000000000e+05  4.379809856032565563e+02
9.537500000000000000e+01  1.565571875000000000e+05  4.138048136840906750e+02
9.550000000000000000e+01  1.778710937500000000e+05  4.410742667500139760e+02
9.562500000000000000e+01  1.623967187500000000e+05  4.214515525333991377e+02
9.575000000000000000e+01  1.738176562500000000e+05  4.360195655282427083e+02
9.587500000000000000e+01  1.603339062500000000e+05  4.187662951586929125e+02
9.600000000000000000e+01  1.749866176470588252e+05  4.244211150166451603e+02
9.612500000000000000e+01  1.610747945205479336e+05  3.930079928156217193e+02
9.625000000000000000e+01  1.700568493150684808e+05  4.038170522303181542e+02
9.637500000000000000e+01  1.669654545454545296e+05  3.895982249183178396e+02
9.650000000000000000e+01  1.688737931034482899e+05  3.686128941252844697e+02
9.662500000000000000e+01  1.767930000000000000e+05  4.204675968490318496e+02
9.675000000000000000e+01  1.601840625000000000e+05  4.185705655673544925e+02
9.687500000000000000e+01  1.786400000000000000e+05  4.420265829110281288e+02
9.700000000000000000e+01  1.580228125000000000e+05  4.157372381347080932e+02
9.712500000000000000e+01  1.769643750000000000e+05  4.399486164954379888e+02
9.725000000000000000e+01  1.632901492537313607e+05  4.130395241064076117e+02
9.737500000000000000e+01  1.769090000000000000e+05  4.206055158934556744e+02
9.750000000000000000e+01  1.639837500000000000e+05  3.992851685616851682e+02
9.762500000000000000e+01  1.744118055555555620e+05  4.117851784353248945e+02
9.775000000000000000e+01  1.720562666666666628e+05  4.007316419861163013e+02
9.787500000000000000e+01  1.734121951219512266e+05  3.847529086489935821e+02
9.800000000000000000e+01  1.769902702702702663e+05  4.091738366929628228e+02
9.812500000000000000e+01  1.626832812500000000e+05  4.218232317774680382e+02
9.825000000000000000e+01  1.827754687500000000e+05  4.471137091896338802e+02
9.837500000000000000e+01  1.668493750000000000e+05  4.271902432245498176e+02
9.850000000000000000e+01  1.887878787878787844e+05  4.474701871760694303e+02
9.862500000000000000e+01  1.632866666666666570e+05  4.070050860820026060e+02
9.875000000000000000e+01  1.903310000000000000e+05  4.362694121755500873e+02
9.887500000000000000e+01  1.696652112676056277e+05  4.089933500739121541e+02
9.900000000000000000e+01  1.774811111111110949e+05  4.153926819852674726e+02
9.912500000000000000e+01  1.828965753424657451e+05  4.187842854330282876e+02
9.925000000000000000e+01  1.779633333333333430e+05  3.996381910687262575e+02
9.937500000000000000e+01  1.941109090909091174e+05  4.200767344306481732e+02
9.950000000000000000e+01  1.675471875000000000e+05  4.280826279214388137e+02
9.962500000000000000e+01  1.914718750000000000e+05  4.576268821663015274e+02
9.975000000000000000e+01  1.764527692307692196e+05  4.359197852490726177e+02
9.987500000000000000e+01  1.942713043478260806e+05  4.439446254858758039e+02
1.000000000000000000e+02  1.795692753623188473e+05  4.268158017557918811e+02
1.001250000000000000e+02  1.870115942028985301e+05  4.355707831826658207e+02
1.002500000000000000e+02  1.795510000000000000e+05  4.237345867403320767e+02
1.003750000000000000e+02  1.920760563380281674e+05  4.351675077138536949e+02
1.005000000000000000e+02  1.860552054794520664e+05  4.223850152937246776e+02
1.006250000000000000e+02  1.829928947368421068e+05  4.105436484195288926e+02
1.007500000000000000e+02  1.918556410256410018e+05  4.149435375831096167e+02
1.008750000000000000e+02  1.778492187500000000e+05  4.410471437474824938e+02
1.010000000000000000e+02  1.964210937500000000e+05  4.635035828222501095e+02
1.011250000000000000e+02  1.729319117647058738e+05  4.219219648983303159e+02
1.012500000000000000e+02  1.905318840579710086e+05  4.396512432724204587e+02
1.013750000000000000e+02  1.744795652173913259e+05  4.207234894421370086e+02
1.015000000000000000e+02  1.874630434782608645e+05  4.360962040431495552e+02
1.016250000000000000e+02  1.784482608695652161e+05  4.254814538247633777e+02
1.017500000000000000e+02  1.821597183098591631e+05  4.237854273975321462e+02
1.018750000000000000e+02  1.785207042253521213e+05  4.195310812198567874e+02
1.020000000000000000e+02  1.747088000000000175e+05  4.038087996399616486e+02
1.021250000000000000e+02  1.857427848101265845e+05  4.056873357509693392e+02
1.022500000000000000e+02  1.743021875000000000e+05  4.366268630972274991e+02
1.023750000000000000e+02  1.839795588235293981e+05  4.351904437350837043e+02
1.025000000000000000e+02  2.316845588235293981e+05  4.883634000963148196e+02
1.026250000000000000e+02  5.493352941176470631e+04  2.378008020450881475e+02
1.027500000000000000e+02  2.180005882352941262e+05  4.737218279140349182e+02
1.028750000000000000e+02  1.818204347826086741e+05  4.294828442994830766e+02
1.030000000000000000e+02  1.724850724637681269e+05  4.183119124799858355e+02
1.031250000000000000e+02  1.737160000000000000e+05  4.167925143281726719e+02
1.032500000000000000e+02  1.762353521126760461e+05  4.168370953439137452e+02
1.033750000000000000e+02  1.757431506849315192e+05  4.105128858195646444e+02
1.035000000000000000e+02  1.766415000000000000e+05  3.931428652538413075e+02
1.036250000000000000e+02  1.682747761194029881e+05  4.192963958674531000e+02
1.037500000000000000e+02  1.767155223880597041e+05  4.296837880568318155e+02
1.038750000000000000e+02  1.692620588235293981e+05  4.174210759787774236e+02
1.040000000000000000e+02  1.788664705882352719e+05  4.291005116927129279e+02
1.041250000000000000e+02  1.693320588235293981e+05  4.175073813656588300e+02
1.042500000000000000e+02  1.788808823529411748e+05  4.291177982501851034e+02
1.043750000000000000e+02  1.710313043478260806e+05  4.165453383529717257e+02
1.045000000000000000e+02  1.767920000000000000e+05  4.204664076950737694e+02
1.046250000000000000e+02  1.745000000000000000e+05  4.177319714841084419e+02
1.047500000000000000e+02  1.725346575342465658e+05  4.067483154926727593e+02
1.048750000000000000e+02  1.774278048780487734e+05  3.891821684786559672e+02
1.050000000000000000e+02  1.680823529411764466e+05  4.159638825151691321e+02
1.051250000000000000e+02  1.806470149253731361e+05  4.344372074713035659e+02
1.052500000000000000e+02  1.653859701492537279e+05  4.156817437610596357e+02
1.053750000000000000e+02  1.767273529411764466e+05  4.265269232568746247e+02
1.055000000000000000e+02  1.717758823529411748e+05  4.205093508910964033e+02
1.056250000000000000e+02  1.775632352941176505e+05  4.275344236327683802e+02
1.057500000000000000e+02  1.707269117647058738e+05  4.192234386606876342e+02
1.058750000000000000e+02  1.743162318840579828e+05  4.205265200736764086e+02
1.060000000000000000e+02  1.756388732394366234e+05  4.161310926768177865e+02
1.061250000000000000e+02  1.701143835616438591e+05  4.038853568742826496e+02
1.062500000000000000e+02  1.779625000000000000e+05  3.851000952133527448e+02
1.063750000000000000e+02  1.663085074626865680e+05  4.168394859542076460e+02
1.065000000000000000e+02  1.842305970149253553e+05  4.387251169292098325e+02
1.066250000000000000e+02  1.679561194029850594e+05  4.188992034604926289e+02
1.067500000000000000e+02  1.776960294117647281e+05  4.276942637188311096e+02
1.068750000000000000e+02  1.706004477611940238e+05  4.221839335886101594e+02
1.070000000000000000e+02  1.812022058823529514e+05  4.318931378546683391e+02
1.071250000000000000e+02  1.731820588235293981e+05  4.222270109655792112e+02
1.072500000000000000e+02  1.731901449275362538e+05  4.191660136842386351e+02
1.073750000000000000e+02  1.728951388888889051e+05  4.099908488515021645e+02
1.075000000000000000e+02  1.733919178082191793e+05  4.077575536465591881e+02
1.076250000000000000e+02  1.792975000000000000e+05  3.865418261111381071e+02
1.077500000000000000e+02  1.659658208955223672e+05  4.164098057307905378e+02
1.078750000000000000e+02  1.783986567164179287e+05  4.317252092140142850e+02
1.080000000000000000e+02  1.698889552238805918e+05  4.213026505592309263e+02
1.081250000000000000e+02  1.794904477611940238e+05  4.330442627282395165e+02
1.082500000000000000e+02  1.717769117647058738e+05  4.205106108951740680e+02
1.083750000000000000e+02  1.765535820895522193e+05  4.294868640159075994e+02
1.085000000000000000e+02  1.712611764705882233e+05  4.198788752678488549e+02
1.086250000000000000e+02  1.742090000000000000e+05  4.173835166845954632e+02
1.087500000000000000e+02  1.732218055555555620e+05  4.103779827604886350e+02
1.088750000000000000e+02  1.748590410958904249e+05  4.094790020326418585e+02
1.090000000000000000e+02  1.744887341772151995e+05  3.932051255896055864e+02
1.091250000000000000e+02  1.741881944444444380e+05  4.115211215571496268e+02
1.092500000000000000e+02  1.762182089552238758e+05  4.290787532847357966e+02
1.093750000000000000e+02  1.706663636363636178e+05  4.254524410722366952e+02
1.095000000000000000e+02  1.796375000000000000e+05  4.300243666146756709e+02
1.096250000000000000e+02  1.764282089552238758e+05  4.293343446609620742e+02
1.097500000000000000e+02  1.736438805970149406e+05  4.259330695405377014e+02
1.098750000000000000e+02  1.690388405797101441e+05  4.141119158500287085e+02
1.100000000000000000e+02  1.741530985915492929e+05  4.143672743448815936e+02
1.101250000000000000e+02  1.737153521126760461e+05  4.138461755441235823e+02
1.102500000000000000e+02  1.739365753424657451e+05  4.083974741642439312e+02
1.103750000000000000e+02  1.771690909090908826e+05  4.013263135122781478e+02
1.105000000000000000e+02  1.710512328767123399e+05  4.049959631351299549e+02
1.106250000000000000e+02  1.786023880597015086e+05  4.319716540620703427e+02
1.107500000000000000e+02  1.694334328358209168e+05  4.207374531169470515e+02
1.108750000000000000e+02  1.796649253731343488e+05  4.332546866730585862e+02
1.110000000000000000e+02  1.714174626865671598e+05  4.231936571636886697e+02
1.111250000000000000e+02  1.762857352941176505e+05  4.259936734994919334e+02
1.112500000000000000e+02  1.734910000000000000e+05  4.165225083954047136e+02
1.113750000000000000e+02  1.746390000000000000e+05  4.178983129901340021e+02
1.115000000000000000e+02  1.773206944444444380e+05  4.152049127825505366e+02
1.116250000000000000e+02  1.744153521126760461e+05  4.146791504977889531e+02
1.117500000000000000e+02  1.758203999999999942e+05  4.050913970945322262e+02
1.118750000000000000e+02  1.735198684210526117e+05  3.997761016374581118e+02
1.120000000000000000e+02  1.799212121212121274e+05  4.368358135585339141e+02
1.121250000000000000e+02  1.794914925373134320e+05  4.330455230561611302e+02
1.122500000000000000e+02  1.613113432835820713e+05  4.105292185113060555e+02
1.123750000000000000e+02  1.696285294117647281e+05  4.178727124451037298e+02
1.125000000000000000e+02  1.812076811594202882e+05  4.287585327863377529e+02
1.126250000000000000e+02  1.717440000000000000e+05  4.144200767337412685e+02
1.127500000000000000e+02  1.729598550724637462e+05  4.188872397659438889e+02
1.128750000000000000e+02  1.751192957746478787e+05  4.155151342852332164e+02
1.130000000000000000e+02  1.760101388888889051e+05  4.136677028294540719e+02
1.131250000000000000e+02  1.787941891891891719e+05  4.112537397060432340e+02
1.132500000000000000e+02  1.712430263157894951e+05  3.971446084585573431e+02
1.133750000000000000e+02  1.801298507462686393e+05  4.338148988351200614e+02
1.135000000000000000e+02  1.666021212121212156e+05  4.203560627223083657e+02
1.136250000000000000e+02  1.770207352941176505e+05  4.268808118300124761e+02
1.137500000000000000e+02  1.745698550724637462e+05  4.208323335629817734e+02
1.138750000000000000e+02  1.797031884057971183e+05  4.269749201541745265e+02
1.140000000000000000e+02  1.692153623188405763e+05  4.143280812039972147e+02
1.141250000000000000e+02  1.762690000000000000e+05  4.198440186545474830e+02
1.142500000000000000e+02  1.730920000000000000e+05  4.160432669807312323e+02
1.143750000000000000e+02  1.744419718309859163e+05  4.147107939881331617e+02
1.145000000000000000e+02  1.758582191780821886e+05  4.106472562612264028e+02
1.146250000000000000e+02  1.734752564102564065e+05  3.945667528054801778e+02
1.147500000000000000e+02  1.781436363636363822e+05  4.346725438599439713e+02
1.148750000000000000e+02  1.701449253731343488e+05  4.216199175412064619e+02
1.150000000000000000e+02  1.760753623188405763e+05  4.226430872072098168e+02
1.151250000000000000e+02  1.739581159420289914e+05  4.200943323315976841e+02
1.152500000000000000e+02  1.748620588235293981e+05  4.242700325896623781e+02
1.153750000000000000e+02  1.725986956521739194e+05  4.184496696425324558e+02
1.155000000000000000e+02  1.764314492753623344e+05  4.230702386142189653e+02
1.156250000000000000e+02  1.722840000000000000e+05  4.150710782504606300e+02
1.157500000000000000e+02  1.743108450704225397e+05  4.145548971432939425e+02
1.158750000000000000e+02  1.763328378378378402e+05  4.084131891722481669e+02
1.160000000000000000e+02  1.733863636363636469e+05  3.970188496055934024e+02
1.161250000000000000e+02  1.790234328358209168e+05  4.324805283945276528e+02
1.162500000000000000e+02  1.686557352941176505e+05  4.166727710048808149e+02
1.163750000000000000e+02  1.769702941176470486e+05  4.268199887167493785e+02
1.165000000000000000e+02  1.722000000000000000e+05  4.210281533132350091e+02
1.166250000000000000e+02  1.747808695652174065e+05  4.210866011236556687e+02
1.167500000000000000e+02  1.724231884057971183e+05  4.182368649393390001e+02
1.168750000000000000e+02  1.761190000000000000e+05  4.196653428626195250e+02
1.170000000000000000e+02  1.931797101449275215e+05  4.426956246554249788e+02
1.171250000000000000e+02  1.964308450704225397e+05  4.400729637795445797e+02
1.172500000000000000e+02  1.492331944444444380e+05  3.809039615599958211e+02
1.173750000000000000e+02  1.931663291139240609e+05  4.137149241390449106e+02
1.175000000000000000e+02  1.086822058823529369e+05  3.344827967915255726e+02
1.176250000000000000e+02  1.480823880597015086e+05  3.933356616796166918e+02
1.177500000000000000e+02  1.973066666666666570e+05  4.473993558051678860e+02
1.178750000000000000e+02  1.722277941176470486e+05  4.210621301827658272e+02
1.180000000000000000e+02  1.764288235294117767e+05  4.261665244647853115e+02
1.181250000000000000e+02  1.753124637681159365e+05  4.217264802126863970e+02
1.182500000000000000e+02  1.777939130434782710e+05  4.247006433017496647e+02
1.183750000000000000e+02  1.746260000000000000e+05  4.178827586775984742e+02
1.185000000000000000e+02  1.749480000000000000e+05  4.182678567616689520e+02
1.186250000000000000e+02  1.730658904109589057e+05  4.073740216861589261e+02
1.187500000000000000e+02  1.732718750000000000e+05  3.893750000000000000e+02
1.188750000000000000e+02  1.807201492537313607e+05  4.345251387839853123e+02
1.190000000000000000e+02  1.720950000000000000e+05  4.208997714979884108e+02
1.191250000000000000e+02  1.778967647058823495e+05  4.279357691188590707e+02
1.192500000000000000e+02  1.703377941176470486e+05  4.187454229466327433e+02
1.193750000000000000e+02  1.799192753623188473e+05  4.272315544200914132e+02
1.195000000000000000e+02  1.758039705882352719e+05  4.254111841566184467e+02
1.196250000000000000e+02  1.783661764705882233e+05  4.284999888966498816e+02
1.197500000000000000e+02  1.722469999999999709e+05  4.150265051776813721e+02
1.198750000000000000e+02  1.768111267605633766e+05  4.175174597553441913e+02
1.200000000000000000e+02  1.747967123287671129e+05  4.094060158262310551e+02
1.201250000000000000e+02  1.757430769230769365e+05  3.971374396309261101e+02
1.202500000000000000e+02  1.795860000000000000e+05  4.237758841652035358e+02
1.203750000000000000e+02  1.712398507462686393e+05  4.229743570830658541e+02
1.205000000000000000e+02  1.802067647058823495e+05  4.307051934535037390e+02
1.206250000000000000e+02  1.708380882352941262e+05  4.193599144997925805e+02
1.207500000000000000e+02  1.764422058823529514e+05  4.261826867975182722e+02
1.208750000000000000e+02  1.726798550724637462e+05  4.185480398564982920e+02
1.210000000000000000e+02  1.803879411764706019e+05  4.309216504866417949e+02
1.211250000000000000e+02  1.745800000000000000e+05  4.148748326430073234e+02
1.212500000000000000e+02  1.790392957746478787e+05  4.201399951831172075e+02
1.213750000000000000e+02  1.728552777777777810e+05  4.099435842697755561e+02
1.215000000000000000e+02  1.747445454545454413e+05  3.985707938195552629e+02
1.216250000000000000e+02  1.823085915492957574e+05  4.239585650836133368e+02
1.217500000000000000e+02  1.719272058823529514e+05  4.206945309940509787e+02
1.218750000000000000e+02  1.778888059701492602e+05  4.311078477443006136e+02
1.220000000000000000e+02  1.731326470588235534e+05  4.221667724217814452e+02
1.221250000000000000e+02  1.781386764705882233e+05  4.282266331137736302e+02
1.222500000000000000e+02  1.742567647058823495e+05  4.235350796189379139e+02
1.223750000000000000e+02  1.766829577464788745e+05  4.173661047376181159e+02
1.225000000000000000e+02  1.738201449275362538e+05  4.199277050430441705e+02
1.226250000000000000e+02  1.758015492957746610e+05  4.163237575933893595e+02
1.227500000000000000e+02  1.756961643835616414e+05  4.104580052410099711e+02
1.228750000000000000e+02  1.749962162162162131e+05  4.068623370202874412e+02
1.230000000000000000e+02  1.802793243243243196e+05  4.129582254689557885e+02
1.231250000000000000e+02  1.724423880597015086e+05  4.244569342319649650e+02
1.232500000000000000e+02  1.791979104477612127e+05  4.326912264915196715e+02
1.233750000000000000e+02  1.728444117647058738e+05  4.218152094629306816e+02
1.235000000000000000e+02  1.785483823529411748e+05  4.287187952065103218e+02
1.236250000000000000e+02  1.738919999999999709e+05  4.170035971067875380e+02
1.237500000000000000e+02  1.776062318840579828e+05  4.244764248397035544e+02
1.238750000000000000e+02  1.726494202898550720e+05  4.185111537358380360e+02
1.240000000000000000e+02  1.772137500000000000e+05  4.150796861246444109e+02
1.241250000000000000e+02  1.793350704225352092e+05  4.204868896413370294e+02
1.242500000000000000e+02  1.747573972602739814e+05  4.093599716801355157e+02
1.243750000000000000e+02  1.775993333333333139e+05  4.071355766544822927e+02
1.245000000000000000e+02  1.657046268656716566e+05  4.160820075704260148e+02
1.246250000000000000e+02  1.810272058823529514e+05  4.316845323463976456e+02
1.247500000000000000e+02  1.712241176470588252e+05  4.198334444839601360e+02
1.248750000000000000e+02  1.803410000000000000e+05  4.246657509147635778e+02
1.250000000000000000e+02  1.727373529411764466e+05  4.216845542841227825e+02
1.251250000000000000e+02  1.755738028169014142e+05  4.160540017289720822e+02
1.252500000000000000e+02  1.727965217391304614e+05  4.186894065481470761e+02
1.253750000000000000e+02  1.764960000000000000e+05  4.201142701694385551e+02
1.255000000000000000e+02  1.752957746478873014e+05  4.157244521018482146e+02
1.256250000000000000e+02  1.755638356164383586e+05  4.103034041630871229e+02
1.257500000000000000e+02  1.817498666666666686e+05  4.118655228213316946e+02
1.258750000000000000e+02  1.737128358208955033e+05  4.260176316767219191e+02
1.260000000000000000e+02  1.772024637681159365e+05  4.239936502082657626e+02
1.261250000000000000e+02  1.713425000000000000e+05  4.199785533739998868e+02
1.262500000000000000e+02  1.764770000000000000e+05  4.200916566655424731e+02
1.263750000000000000e+02  1.723307352941176505e+05  4.211879465656393791e+02
1.265000000000000000e+02  1.775390000000000000e+05  4.213537706013795514e+02
1.266250000000000000e+02  1.759637681159420172e+05  4.225091332194538722e+02
1.267500000000000000e+02  1.745310000000000000e+05  4.177690749684567209e+02
1.268750000000000000e+02  1.754101408450704184e+05  4.158600431407847395e+02
1.270000000000000000e+02  1.744798611111110949e+05  4.118655099695398576e+02
1.271250000000000000e+02  1.771746052631578932e+05  4.039642761762390819e+02
1.272500000000000000e+02  1.724500000000000000e+05  4.152709958569223545e+02
1.273750000000000000e+02  1.793337313432835799e+05  4.328551719812220426e+02
1.275000000000000000e+02  1.726426470588235534e+05  4.215689409483558165e+02
1.276250000000000000e+02  1.782880000000000000e+05  4.222416369805327463e+02
1.277500000000000000e+02  1.731480882352941262e+05  4.221855978900084665e+02
1.278750000000000000e+02  1.773211594202898559e+05  4.241356284208463308e+02
1.280000000000000000e+02  1.725753623188405763e+05  4.184213839257740233e+02
1.281250000000000000e+02  1.744518309859154979e+05  4.147225131866611605e+02
1.282500000000000000e+02  1.746140000000000000e+05  4.178684003367567357e+02
1.283750000000000000e+02  1.730889041095890279e+05  4.074011063742321426e+02
1.285000000000000000e+02  1.793400000000000000e+05  4.064253670077304719e+02
1.286250000000000000e+02  1.700675362318840635e+05  4.153700556537452826e+02
1.287500000000000000e+02  1.816345588235293981e+05  4.324080847187108247e+02
1.288750000000000000e+02  1.695245588235293981e+05  4.177446292407785791e+02
1.290000000000000000e+02  1.758968115942028817e+05  4.224287404376530617e+02
1.291250000000000000e+02  1.728001470588235534e+05  4.217611934795086199e+02
1.292500000000000000e+02  1.764400000000000000e+05  4.200476163484325980e+02
1.293750000000000000e+02  1.729669565217391355e+05  4.188958390907714033e+02
1.295000000000000000e+02  1.742371014492753602e+05  4.204310607371893411e+02
1.296250000000000000e+02  1.747209722222222190e+05  4.121499871196359663e+02
1.297500000000000000e+02  1.730195833333333430e+05  4.101383715239240360e+02
1.298750000000000000e+02  1.767562820512820617e+05  3.982805953220981792e+02
1.300000000000000000e+02  1.704695588235293981e+05  4.189073517821842074e+02
1.301250000000000000e+02  1.782272058823529514e+05  4.283330275917928134e+02
1.302500000000000000e+02  1.709677941176470486e+05  4.195190801984089148e+02
1.303750000000000000e+02  1.756320289855072624e+05  4.221106735323508587e+02
1.305000000000000000e+02  1.707847826086956484e+05  4.162450292623724408e+02
1.306250000000000000e+02  1.744935294117647281e+05  4.238227129844771071e+02
1.307500000000000000e+02  1.717490000000000000e+05  4.144261092161062265e+02
1.308750000000000000e+02  1.722210000000000000e+05  4.149951806949088109e+02
1.310000000000000000e+02  1.702954166666666570e+05  4.068967785887791138e+02
1.311250000000000000e+02  1.686250704225352092e+05  4.077377458988418653e+02
1.312500000000000000e+02  1.684412658227848005e+05  3.863311462029927839e+02
1.313750000000000000e+02  1.594746268656716566e+05  4.081853522604105819e+02
1.315000000000000000e+02  1.705755882352941262e+05  4.190376084566134409e+02
1.316250000000000000e+02  1.594733823529411748e+05  4.051712921118142390e+02
1.317500000000000000e+02  1.641103333333333430e+05  4.375637731297640016e+02
1.318750000000000000e+02  1.697437777777777810e+05  5.138539447578561976e+02
1.320000000000000000e+02  4.322919999999999709e+04  3.479105632199172078e+02
