# DMC at SINQ, PSI: Sample name = Unknown, wavelength = 2.450 AA, T = 0.0 K
# Filelist='dmc:2021:567,568,570,571'
#   0.000   0.125 132.000     560., sample="Unknown"
0.000000000000000000e+00  2.550800000000000000e+05  4.225588716380239930e+03
1.250000000000000000e-01  2.618700000000000000e+05  3.027449421542827622e+03
2.500000000000000000e-01  2.546040000000000000e+05  1.887976694771415623e+03
3.750000000000000000e-01  2.521120000000000000e+05  1.878714454088220464e+03
5.000000000000000000e-01  2.415155555555555620e+05  1.370567153038352444e+03
6.250000000000000000e-01  2.541388888888889051e+05  1.405928804196405963e+03
7.500000000000000000e-01  2.491407692307692196e+05  1.158243160538801021e+03
8.750000000000000000e-01  2.458250000000000000e+05  1.108659099994222743e+03
1.000000000000000000e+00  2.505200000000000000e+05  1.119196140093415579e+03
1.125000000000000000e+00  2.448355000000000000e+05  9.257020308933107344e+02
1.250000000000000000e+00  2.462444444444444380e+05  9.785792170032108288e+02
1.375000000000000000e+00  2.454929166666666570e+05  8.461802449504741617e+02
1.500000000000000000e+00  2.492866666666666861e+05  9.115676363032836207e+02
1.625000000000000000e+00  2.427470370370370219e+05  7.933121517385335437e+02
1.750000000000000000e+00  2.480070833333333430e+05  8.505022005001254684e+02
1.875000000000000000e+00  2.419200000000000000e+05  7.391014597076205064e+02
2.000000000000000000e+00  2.476875000000000000e+05  7.869045367768570713e+02
2.125000000000000000e+00  2.413019999999999709e+05  6.946970562770508195e+02
2.250000000000000000e+00  2.415760000000000000e+05  6.950913609015724433e+02
2.375000000000000000e+00  2.434486486486486683e+05  6.786593581985121091e+02
2.500000000000000000e+00  2.404657500000000000e+05  6.487025994244203275e+02
2.625000000000000000e+00  2.395915789473684272e+05  6.643439685789716123e+02
2.750000000000000000e+00  2.376325000000000000e+05  6.148590932445047201e+02
2.875000000000000000e+00  2.390783333333333430e+05  6.312399614163291517e+02
3.000000000000000000e+00  2.379091489361702406e+05  5.952585782761281052e+02
3.125000000000000000e+00  2.380379166666666570e+05  5.891847150700891689e+02
3.250000000000000000e+00  2.359714583333333430e+05  5.866217208753676005e+02
3.375000000000000000e+00  2.381117307692307804e+05  5.661581247225451534e+02
3.500000000000000000e+00  2.349812500000000000e+05  5.419654624604781930e+02
3.625000000000000000e+00  2.356973684210526117e+05  5.380082792924822570e+02
3.750000000000000000e+00  2.343587719298245502e+05  5.364783482671352886e+02
3.875000000000000000e+00  2.325881967213114840e+05  5.166279977322650439e+02
4.000000000000000000e+00  2.345956666666666861e+05  5.231586226417800845e+02
4.125000000000000000e+00  2.312220312500000000e+05  5.028907403002042429e+02
4.250000000000000000e+00  2.317940625000000000e+05  5.035124187737329180e+02
4.375000000000000000e+00  2.315987692307692487e+05  4.994137154420147340e+02
4.500000000000000000e+00  2.304555555555555620e+05  4.733434401633543303e+02
4.625000000000000000e+00  2.282998529411764466e+05  4.847829973279486921e+02
4.750000000000000000e+00  2.279800000000000000e+05  4.552521778690855285e+02
4.875000000000000000e+00  2.269922535211267532e+05  4.730699520450136220e+02
5.000000000000000000e+00  2.281620481927710935e+05  4.386636795735838632e+02
5.125000000000000000e+00  2.262390789473684272e+05  4.564845003178868978e+02
5.250000000000000000e+00  2.250739024390243867e+05  4.383335010920965260e+02
5.375000000000000000e+00  2.248480769230769365e+05  4.492067850113099325e+02
5.500000000000000000e+00  2.250714117647059029e+05  4.305263375632670204e+02
5.625000000000000000e+00  2.251301111111111240e+05  4.184509499700820925e+02
5.750000000000000000e+00  2.211194186046511750e+05  4.242415846190292541e+02
5.875000000000000000e+00  2.241211827956989000e+05  4.107229764629830129e+02
6.000000000000000000e+00  2.223473563218390627e+05  4.229659226855088150e+02
6.125000000000000000e+00  2.213796907216495019e+05  3.996980606608389621e+02
6.250000000000000000e+00  2.198424468085106346e+05  4.046139646494129920e+02
6.375000000000000000e+00  2.206212871287128655e+05  3.910317666947974544e+02
6.500000000000000000e+00  2.189000000000000000e+05  3.954202104813850838e+02
6.625000000000000000e+00  2.187340000000000000e+05  3.818673417126248637e+02
6.750000000000000000e+00  2.171022549019607832e+05  3.859944864375256088e+02
6.875000000000000000e+00  2.168799082568807353e+05  3.732032623482203917e+02
7.000000000000000000e+00  2.105210377358490659e+05  3.728583200180636936e+02
7.125000000000000000e+00  2.134781651376146765e+05  3.702648637859545033e+02
7.250000000000000000e+00  2.109002970297029824e+05  3.823199219159963604e+02
7.375000000000000000e+00  2.086685416666666570e+05  3.900694104454716467e+02
7.500000000000000000e+00  2.114867391304347839e+05  4.011406527035346130e+02
7.625000000000000000e+00  2.080738709677419392e+05  3.957458042590255900e+02
7.750000000000000000e+00  2.077838636363636178e+05  4.065496510903100784e+02
7.875000000000000000e+00  2.072692222222222481e+05  4.015088978612159281e+02
8.000000000000000000e+00  2.055273255813953292e+05  4.090106155257631713e+02
8.125000000000000000e+00  2.059585057471264445e+05  4.070795257149499662e+02
8.250000000000000000e+00  2.035704597701149469e+05  4.047126436781609300e+02
8.375000000000000000e+00  2.056022500000000000e+05  4.241485220415131607e+02
8.500000000000000000e+00  2.024210588235293981e+05  4.082887403562950226e+02
8.625000000000000000e+00  2.024338750000000000e+05  4.208677234298206713e+02
8.750000000000000000e+00  2.014549397590361477e+05  4.121914075078270230e+02
8.875000000000000000e+00  2.042327272727272648e+05  4.308899113491511912e+02
9.000000000000000000e+00  2.005141463414634054e+05  4.137277036053030770e+02
9.125000000000000000e+00  2.025620930232558167e+05  4.060494086047060023e+02
9.250000000000000000e+00  2.016009210526315728e+05  4.309118922288707836e+02
9.375000000000000000e+00  2.015718390804597584e+05  4.027210428331251251e+02
9.500000000000000000e+00  2.033529577464788745e+05  4.477597922782209139e+02
9.625000000000000000e+00  1.992108333333333430e+05  4.074420545031867391e+02
9.750000000000000000e+00  2.010031081081081065e+05  4.360482487493781605e+02
9.875000000000000000e+00  1.972245679012345499e+05  4.128449885925771810e+02
1.000000000000000000e+01  1.985110256410256552e+05  4.220792821817653930e+02
1.012500000000000000e+01  1.966778947368421068e+05  4.256180124486927525e+02
1.025000000000000000e+01  1.988372727272727061e+05  4.251601545591888680e+02
1.037500000000000000e+01  1.962006666666666861e+05  4.279259541348505422e+02
1.050000000000000000e+01  1.957217073170731601e+05  4.087536008970220678e+02
1.062500000000000000e+01  1.959916000000000058e+05  4.276978996129550410e+02
1.075000000000000000e+01  1.961196202531645540e+05  4.168655403188606670e+02
1.087500000000000000e+01  1.951824000000000233e+05  4.268140578753234990e+02
1.100000000000000000e+01  1.926672727272727352e+05  4.185117275724809360e+02
1.112500000000000000e+01  1.953442105263157864e+05  4.241724875200831093e+02
1.125000000000000000e+01  1.926891891891891719e+05  4.269350739177151581e+02
1.137500000000000000e+01  1.941582432432432543e+05  4.285594510309308021e+02
1.150000000000000000e+01  1.904515789473684272e+05  4.188268472505545219e+02
1.162500000000000000e+01  1.927601351351351477e+05  4.270136629793873340e+02
1.175000000000000000e+01  1.908470666666666802e+05  4.220473064585164025e+02
1.187500000000000000e+01  1.914338461538461561e+05  4.144871596595996266e+02
1.200000000000000000e+01  1.906608219178082072e+05  4.275809229544865957e+02
1.212500000000000000e+01  1.895827500000000000e+05  4.072897080089306883e+02
1.225000000000000000e+01  1.918310000000000000e+05  4.379851595659378063e+02
1.237500000000000000e+01  1.899675949367088615e+05  4.102751723325783360e+02
1.250000000000000000e+01  1.889350000000000000e+05  4.346665388547869497e+02
1.262500000000000000e+01  1.887806666666666861e+05  4.197562255510796945e+02
1.275000000000000000e+01  1.905915277777777810e+05  4.304617505340509069e+02
1.287500000000000000e+01  1.872918181818181765e+05  4.126321476281245282e+02
1.300000000000000000e+01  1.895170000000000000e+05  4.353355028021491648e+02
1.312500000000000000e+01  1.859610666666666511e+05  4.166097241090541843e+02
1.325000000000000000e+01  1.886677333333333372e+05  4.196306524128622755e+02
1.337500000000000000e+01  1.865310810810810653e+05  4.200575198012329565e+02
1.350000000000000000e+01  1.877236363636363531e+05  4.131075540820688161e+02
1.362500000000000000e+01  1.874153623188405763e+05  4.360407400577704493e+02
1.375000000000000000e+01  1.842750000000000000e+05  4.066632513517787402e+02
1.387500000000000000e+01  1.864200000000000000e+05  4.317638243299222722e+02
1.400000000000000000e+01  1.842059459459459176e+05  4.174312731297280266e+02
1.412500000000000000e+01  1.868004225352112553e+05  4.291496599888180299e+02
1.425000000000000000e+01  1.806561842105263204e+05  4.079140275574209227e+02
1.437500000000000000e+01  1.847117391304347839e+05  4.328841887352352842e+02
1.450000000000000000e+01  2.145925675675675448e+05  4.505474107357316029e+02
1.462500000000000000e+01  1.653878947368421068e+05  3.902959847073376523e+02
1.475000000000000000e+01  1.771840000000000000e+05  4.066592349047705284e+02
1.487500000000000000e+01  1.810276712328767171e+05  4.166391458979092590e+02
1.500000000000000000e+01  1.824771830985915440e+05  4.241545495785572939e+02
1.512500000000000000e+01  1.785217567567567457e+05  4.109403023155581991e+02
1.525000000000000000e+01  1.841400000000000000e+05  4.291153691025293710e+02
1.537500000000000000e+01  1.776448648648648523e+05  4.099297985473053245e+02
1.550000000000000000e+01  1.839064705882352719e+05  4.351039926604509560e+02
1.562500000000000000e+01  1.821326315789473883e+05  4.095775135577982269e+02
1.575000000000000000e+01  1.843748529411764466e+05  4.356577128131258405e+02
1.587500000000000000e+01  1.807922666666666628e+05  4.107790755246534218e+02
1.600000000000000000e+01  1.810247297297297337e+05  4.138110791216184907e+02
1.612500000000000000e+01  1.790259210526315728e+05  4.060693237691948525e+02
1.625000000000000000e+01  1.833004225352112553e+05  4.251102521031056654e+02
1.637500000000000000e+01  1.811724657534246799e+05  4.168057364712471440e+02
1.650000000000000000e+01  1.786025352112676192e+05  4.196272233141221477e+02
1.662500000000000000e+01  1.805568493150684808e+05  4.160969896822956571e+02
1.675000000000000000e+01  1.781214084507042426e+05  4.190616377324511745e+02
1.687500000000000000e+01  1.793351388888889051e+05  4.175567114214384219e+02
1.700000000000000000e+01  1.757207042253521213e+05  4.162280201154414954e+02
1.712500000000000000e+01  1.778260000000000000e+05  4.216942019995058217e+02
1.725000000000000000e+01  1.747452777777777810e+05  4.121786533579227125e+02
1.737500000000000000e+01  1.776868493150684808e+05  4.127767556781121243e+02
1.750000000000000000e+01  1.761069333333333489e+05  4.054213500928522649e+02
1.762500000000000000e+01  1.760260000000000000e+05  4.195545256578696467e+02
1.775000000000000000e+01  1.754227999999999884e+05  4.046331012987774329e+02
1.787500000000000000e+01  1.746040000000000000e+05  4.178564346758345778e+02
1.800000000000000000e+01  1.757728767123287544e+05  4.105476023967743799e+02
1.812500000000000000e+01  1.734460000000000000e+05  4.164684862027377790e+02
1.825000000000000000e+01  1.772701388888889051e+05  4.151457194337881447e+02
1.837500000000000000e+01  1.721480000000000000e+05  4.149072185440981002e+02
1.850000000000000000e+01  1.774480000000000000e+05  4.212457714921302454e+02
1.862500000000000000e+01  1.719978873239436653e+05  4.117953155011319950e+02
1.875000000000000000e+01  1.750900000000000000e+05  3.989645689440696401e+02
1.887500000000000000e+01  1.731100000000000000e+05  4.160648987838316089e+02
1.900000000000000000e+01  1.740741333333333605e+05  4.030746718799273935e+02
1.912500000000000000e+01  1.720910000000000000e+05  4.148385228013425490e+02
1.925000000000000000e+01  1.705501388888889051e+05  4.072009762155097974e+02
1.937500000000000000e+01  1.735580000000000000e+05  4.166029284582622836e+02
1.950000000000000000e+01  1.724713698630137078e+05  4.066737087003477882e+02
1.962500000000000000e+01  1.737978260869565129e+05  4.199007444154874520e+02
1.975000000000000000e+01  1.691830985915492929e+05  4.084118485646643535e+02
1.987500000000000000e+01  1.721320000000000000e+05  4.148879366768814521e+02
2.000000000000000000e+01  1.706740000000000000e+05  4.131270990869517163e+02
2.012500000000000000e+01  1.734534666666666744e+05  4.023554426402384365e+02
2.025000000000000000e+01  1.707181690140845021e+05  4.102605120656447184e+02
2.037500000000000000e+01  1.709754666666666744e+05  3.994710280135747098e+02
2.050000000000000000e+01  1.714480000000000000e+05  4.140627971697047087e+02
2.062500000000000000e+01  1.693852112676056277e+05  4.086557280482599595e+02
2.075000000000000000e+01  1.712870422535211255e+05  4.109434860180346618e+02
2.087500000000000000e+01  1.726462500000000000e+05  4.096956441473760151e+02
2.100000000000000000e+01  1.758186956521739194e+05  4.223349295175705151e+02
2.112500000000000000e+01  1.761811267605633766e+05  4.167729627027071047e+02
2.125000000000000000e+01  1.790549275362318731e+05  4.262040901798483787e+02
2.137500000000000000e+01  1.750552112676056277e+05  4.154390989203157005e+02
2.150000000000000000e+01  1.783833333333333430e+05  4.164471644047306427e+02
2.162500000000000000e+01  1.737178947368421068e+05  4.000041551030726055e+02
2.175000000000000000e+01  1.724942028985507204e+05  4.183229839281935369e+02
2.187500000000000000e+01  1.698758108108108281e+05  4.008657313250497509e+02
2.200000000000000000e+01  1.678813043478260806e+05  4.126916121387477574e+02
2.212500000000000000e+01  1.681108333333333430e+05  4.042784782337083129e+02
2.225000000000000000e+01  1.666310000000000000e+05  4.082046055595159260e+02
2.237500000000000000e+01  1.688666197183098411e+05  4.080296761556514298e+02
2.250000000000000000e+01  1.643285507246376656e+05  4.083015110473452864e+02
2.262500000000000000e+01  1.670091549295774603e+05  4.057793899532737782e+02
2.275000000000000000e+01  1.640972463768115849e+05  4.080140528692539306e+02
2.287500000000000000e+01  1.694393150684931607e+05  4.030831868797437210e+02
2.300000000000000000e+01  1.637231944444444380e+05  3.989678281918214680e+02
2.312500000000000000e+01  1.657436986301369907e+05  3.986631582613646287e+02
2.325000000000000000e+01  1.666447222222222190e+05  4.025117416430157391e+02
2.337500000000000000e+01  1.664669014084507071e+05  4.051201021465871577e+02
2.350000000000000000e+01  1.659710000000000000e+05  4.073953853445078153e+02
2.362500000000000000e+01  1.639690000000000000e+05  4.049308582955860629e+02
2.375000000000000000e+01  1.660863380281690042e+05  4.046567605151175258e+02
2.387500000000000000e+01  1.615445588235293981e+05  4.077939055174349505e+02
2.400000000000000000e+01  1.659165277777777810e+05  4.016313425761318285e+02
2.412500000000000000e+01  1.616610000000000000e+05  4.020708892720287508e+02
2.425000000000000000e+01  1.677707246376811527e+05  4.125556743217076132e+02
2.437500000000000000e+01  1.621610666666666511e+05  3.890376959741676046e+02
2.450000000000000000e+01  1.641020547945205471e+05  3.966839229594158382e+02
2.462500000000000000e+01  1.647960000000000000e+05  4.059507359274028886e+02
2.475000000000000000e+01  1.619500000000000000e+05  4.024301181571776738e+02
2.487500000000000000e+01  1.641874647887323808e+05  4.023368803436565031e+02
2.500000000000000000e+01  1.610936619718309958e+05  3.985282137507033440e+02
2.512500000000000000e+01  1.649220289855072624e+05  4.090381440876028023e+02
2.525000000000000000e+01  1.599746478873239539e+05  3.971416420278449095e+02
2.537500000000000000e+01  1.663690000000000000e+05  4.078835618163595313e+02
2.550000000000000000e+01  1.607570000000000000e+05  4.009451334035618402e+02
2.562500000000000000e+01  1.629064705882352719e+05  4.095092640835396196e+02
2.575000000000000000e+01  1.603298666666666686e+05  3.868348599711366660e+02
2.587500000000000000e+01  1.642332432432432543e+05  3.941519638863928776e+02
2.600000000000000000e+01  1.632907246376811527e+05  4.070101434593577778e+02
2.612500000000000000e+01  1.625594444444444380e+05  3.975473611042936568e+02
2.625000000000000000e+01  1.625044927536231990e+05  4.060291003484388739e+02
2.637500000000000000e+01  1.610463380281690042e+05  3.984696723040312918e+02
2.650000000000000000e+01  1.638157746478873014e+05  4.018812140623481923e+02
2.662500000000000000e+01  1.598678260869565129e+05  4.027216794545701646e+02
2.675000000000000000e+01  1.626779710144927376e+05  4.062457664620346236e+02
2.687500000000000000e+01  1.593750000000000000e+05  3.992179855667827724e+02
2.700000000000000000e+01  1.626390000000000000e+05  4.032852588429187790e+02
2.712500000000000000e+01  1.601306756756756804e+05  3.891978461875020798e+02
2.725000000000000000e+01  1.622045833333333430e+05  3.971132086231368135e+02
2.737500000000000000e+01  1.626932432432432543e+05  3.922996480736932767e+02
2.750000000000000000e+01  1.608056716417910648e+05  4.098852590614854989e+02
2.762500000000000000e+01  1.624865277777777810e+05  3.974581904015615237e+02
2.775000000000000000e+01  1.610650704225352092e+05  3.984928459883664686e+02
2.787500000000000000e+01  1.612840579710144957e+05  4.045015551101583355e+02
2.800000000000000000e+01  1.583230000000000000e+05  3.978982281940948837e+02
2.812500000000000000e+01  1.612048529411764466e+05  4.073649127567674100e+02
2.825000000000000000e+01  1.568200000000000000e+05  3.960050504728443457e+02
2.837500000000000000e+01  1.600590000000000000e+05  4.000737432024251348e+02
2.850000000000000000e+01  1.565900000000000000e+05  3.848709857545456430e+02
2.862500000000000000e+01  1.578325000000000000e+05  3.917247297387399385e+02
2.875000000000000000e+01  1.577450000000000000e+05  3.916161314915978551e+02
2.887500000000000000e+01  1.577960000000000000e+05  3.972354465553143541e+02
2.900000000000000000e+01  1.579453623188405763e+05  4.002929246699880537e+02
2.912500000000000000e+01  1.904788732394366234e+05  4.333544417770460768e+02
2.925000000000000000e+01  1.464961971830985858e+05  3.800432481471153778e+02
2.937500000000000000e+01  1.502900000000000000e+05  3.933322947809486436e+02
2.950000000000000000e+01  1.551540000000000000e+05  3.938959253406919743e+02
2.962500000000000000e+01  1.522130000000000000e+05  3.901448448973791301e+02
2.975000000000000000e+01  1.599408695652174065e+05  4.028136705501746064e+02
2.987500000000000000e+01  1.520967567567567457e+05  3.793089907260052200e+02
3.000000000000000000e+01  1.522383333333333430e+05  3.847200160386001357e+02
3.012500000000000000e+01  1.580911111111110949e+05  3.920455220481732113e+02
3.025000000000000000e+01  1.578900000000000000e+05  3.973537466792026862e+02
3.037500000000000000e+01  1.585160000000000000e+05  3.981406786551707455e+02
3.050000000000000000e+01  1.560630000000000000e+05  3.950480983374050084e+02
3.062500000000000000e+01  1.587560000000000000e+05  3.984419656612490712e+02
3.075000000000000000e+01  1.568210000000000000e+05  3.960063130809911627e+02
3.087500000000000000e+01  1.601772463768115849e+05  4.031112200678510931e+02
3.100000000000000000e+01  1.551139130434782710e+05  3.966887202439036741e+02
3.112500000000000000e+01  1.594031884057971183e+05  4.021360211944622165e+02
3.125000000000000000e+01  1.552235616438355937e+05  3.858037210361271718e+02
3.137500000000000000e+01  1.572256756756756804e+05  3.856513846779466235e+02
3.150000000000000000e+01  1.552254929577464645e+05  3.912022730110930979e+02
3.162500000000000000e+01  1.547000000000000000e+05  3.933192087859426920e+02
3.175000000000000000e+01  1.555701388888889051e+05  3.889071176283295017e+02
3.187500000000000000e+01  1.537636231884057925e+05  3.949583288088556401e+02
3.200000000000000000e+01  1.554598550724637462e+05  3.971308303951300900e+02
3.212500000000000000e+01  1.549908450704225397e+05  3.909064791245386346e+02
3.225000000000000000e+01  1.555911940298507398e+05  4.031847763889211933e+02
3.237500000000000000e+01  1.532920000000000000e+05  3.915252226868659591e+02
3.250000000000000000e+01  1.560178260869565129e+05  3.978428760217533977e+02
3.262500000000000000e+01  1.515140540540540824e+05  3.785817021281765165e+02
3.275000000000000000e+01  1.551998591549295816e+05  3.911699702759725028e+02
3.287500000000000000e+01  1.533379166666666570e+05  3.861068894653300276e+02
3.300000000000000000e+01  1.522411267605633766e+05  3.874233931225418814e+02
3.312500000000000000e+01  1.551690000000000000e+05  3.939149654430509031e+02
3.325000000000000000e+01  1.540420000000000000e+05  3.924818467139594986e+02
3.337500000000000000e+01  1.546650000000000000e+05  3.932747131459128127e+02
3.350000000000000000e+01  1.524457971014492796e+05  3.932621981321509566e+02
3.362500000000000000e+01  1.531690000000000000e+05  3.913681131620203928e+02
3.375000000000000000e+01  1.541492647058823495e+05  3.983504319176728927e+02
3.387500000000000000e+01  1.543043478260869451e+05  3.956521739130434980e+02
3.400000000000000000e+01  1.511504166666666570e+05  3.833429195661261701e+02
3.412500000000000000e+01  1.543154666666666744e+05  3.795099061801798257e+02
3.425000000000000000e+01  1.529530434782608645e+05  3.939159228227618996e+02
3.437500000000000000e+01  1.532645070422535355e+05  3.887233618056539513e+02
3.450000000000000000e+01  1.545501408450704184e+05  3.903503276519141991e+02
3.462500000000000000e+01  1.563759420289855043e+05  3.982992091749688370e+02
3.475000000000000000e+01  1.557330000000000000e+05  3.946302066492123117e+02
3.487500000000000000e+01  1.562360563380281674e+05  3.924736277793468275e+02
3.500000000000000000e+01  1.599688059701492602e+05  4.088173043390183921e+02
3.512500000000000000e+01  1.570414492753623344e+05  3.991458534274639760e+02
3.525000000000000000e+01  1.583186956521739194e+05  4.007657289517223944e+02
3.537500000000000000e+01  1.543066197183098411e+05  3.900426733656472607e+02
3.550000000000000000e+01  1.540472972972973075e+05  3.817334362645067927e+02
3.562500000000000000e+01  1.550632432432432543e+05  3.829901386604830122e+02
3.575000000000000000e+01  1.520176811594202882e+05  3.927096076731917265e+02
3.587500000000000000e+01  1.521277464788732468e+05  3.872791011173587776e+02
3.600000000000000000e+01  1.516730000000000000e+05  3.894521793494035364e+02
3.612500000000000000e+01  1.527370000000000000e+05  3.908158133955175799e+02
3.625000000000000000e+01  1.507357352941176505e+05  3.939151422240028637e+02
3.637500000000000000e+01  1.525157971014492796e+05  3.933524767590573674e+02
3.650000000000000000e+01  1.485460869565217290e+05  3.881995991709308100e+02
3.662500000000000000e+01  1.522294117647058738e+05  3.958620307693632299e+02
3.675000000000000000e+01  1.478169999999999709e+05  3.844697647410001196e+02
3.687500000000000000e+01  1.523559210526315728e+05  3.746035531360597020e+02
3.700000000000000000e+01  1.511572222222222190e+05  3.833515494866652489e+02
3.712500000000000000e+01  1.514938028169014142e+05  3.864713278941518411e+02
3.725000000000000000e+01  1.516310000000000000e+05  3.893982537197618399e+02
3.737500000000000000e+01  1.493590000000000000e+05  3.864699212099176862e+02
3.750000000000000000e+01  1.514140000000000000e+05  3.891195189141762967e+02
3.762500000000000000e+01  1.484010144927536021e+05  3.880099919244713078e+02
3.775000000000000000e+01  1.520542028985507204e+05  3.927567784246755878e+02
3.787500000000000000e+01  1.492494029850746447e+05  3.948825294615584767e+02
3.800000000000000000e+01  1.510280000000000000e+05  3.886232108353797230e+02
3.812500000000000000e+01  1.485795652173913259e+05  3.882433415392044935e+02
3.825000000000000000e+01  1.520036363636363531e+05  3.717325973962226726e+02
3.837500000000000000e+01  1.512177464788732468e+05  3.861190477866610991e+02
3.850000000000000000e+01  1.518890000000000000e+05  3.897293932974519635e+02
3.862500000000000000e+01  1.516407042253521213e+05  3.866586603954421548e+02
3.875000000000000000e+01  1.508388405797101441e+05  3.911839857829551761e+02
3.887500000000000000e+01  1.530410000000000000e+05  3.912045500757883474e+02
3.900000000000000000e+01  1.510890000000000000e+05  3.887016851005408284e+02
3.912500000000000000e+01  1.524539130434782710e+05  3.932726662814342831e+02
3.925000000000000000e+01  1.510310000000000000e+05  3.886270705959635166e+02
3.937500000000000000e+01  1.524960606060606078e+05  4.021669380957825410e+02
3.950000000000000000e+01  1.499065217391304614e+05  3.899731785972014677e+02
3.962500000000000000e+01  1.509106666666666861e+05  3.752998208839907761e+02
3.975000000000000000e+01  1.483127397260273865e+05  3.771176151119137216e+02
3.987500000000000000e+01  1.493563380281690042e+05  3.837352311599836412e+02
4.000000000000000000e+01  1.501619999999999709e+05  3.875074192838118847e+02
4.012500000000000000e+01  1.494200000000000000e+05  3.865488326201490281e+02
4.025000000000000000e+01  1.483827536231884151e+05  3.879861187122285742e+02
4.037500000000000000e+01  1.459923943661972007e+05  3.793891978689312054e+02
4.050000000000000000e+01  1.522144927536231990e+05  3.929637386515199182e+02
4.062500000000000000e+01  1.448650000000000000e+05  3.861680143332919783e+02
4.075000000000000000e+01  1.507668115942028817e+05  3.910905749940688452e+02
4.087500000000000000e+01  1.462804411764706019e+05  3.880500059186001636e+02
4.100000000000000000e+01  1.468013513513513317e+05  3.726474784165287133e+02
4.112500000000000000e+01  1.457448611111110949e+05  3.764258130719964015e+02
4.125000000000000000e+01  1.468697222222222190e+05  3.778756511288460729e+02
4.137500000000000000e+01  1.463700000000000000e+05  3.798795213014586238e+02
4.150000000000000000e+01  1.465890000000000000e+05  3.828694294403772460e+02
4.162500000000000000e+01  1.468518840579710086e+05  3.859794971662668672e+02
4.175000000000000000e+01  1.457643478260869451e+05  3.845476233266501254e+02
4.187500000000000000e+01  1.480621739130434871e+05  3.875667716929289099e+02
4.200000000000000000e+01  1.456456521739130549e+05  3.843910232135477258e+02
4.212500000000000000e+01  1.486223529411764466e+05  3.911439614974478332e+02
4.225000000000000000e+01  1.479282608695652161e+05  3.873914670049593951e+02
4.237500000000000000e+01  1.502975675675675448e+05  3.770588478289263890e+02
4.250000000000000000e+01  1.494317808219178114e+05  3.785376450676284890e+02
4.262500000000000000e+01  1.519788732394366234e+05  3.870895577628283490e+02
4.275000000000000000e+01  1.538590000000000000e+05  3.922486456318236492e+02
4.287500000000000000e+01  1.527528169014084560e+05  3.880739217933053737e+02
4.300000000000000000e+01  1.529520289855072624e+05  3.939146164561058754e+02
4.312500000000000000e+01  1.505486956521739194e+05  3.908075751652636995e+02
4.325000000000000000e+01  1.495301449275362538e+05  3.894833096259847025e+02
4.337500000000000000e+01  1.470639130434782710e+05  3.862580408251450308e+02
4.350000000000000000e+01  1.476300000000000000e+05  3.870007302543385777e+02
4.362500000000000000e+01  1.458214925373134320e+05  3.903214228026507726e+02
4.375000000000000000e+01  1.528034666666666744e+05  3.776460894659031169e+02
4.387500000000000000e+01  1.610834246575342549e+05  3.930185210531257098e+02
4.400000000000000000e+01  1.267952777777777810e+05  3.511028150391207987e+02
4.412500000000000000e+01  1.472962318840579828e+05  3.865630089421097750e+02
4.425000000000000000e+01  1.399989855072463688e+05  3.768659659768964048e+02
4.437500000000000000e+01  1.444569999999999709e+05  3.800749926001446397e+02
4.450000000000000000e+01  1.485339130434782710e+05  3.881836916331048997e+02
4.462500000000000000e+01  1.471247826086956484e+05  3.863379684096667006e+02
4.475000000000000000e+01  1.465069565217391355e+05  3.855259339482778387e+02
4.487500000000000000e+01  1.481392753623188473e+05  3.876676687345265577e+02
4.500000000000000000e+01  1.470385507246376656e+05  3.862247327831304347e+02
4.512500000000000000e+01  1.487058904109589057e+05  3.776171201563378190e+02
4.525000000000000000e+01  1.450419178082191793e+05  3.729360414990447907e+02
4.537500000000000000e+01  1.471301408450704184e+05  3.808646548843963160e+02
4.550000000000000000e+01  1.465021126760563347e+05  3.800509211123758746e+02
4.562500000000000000e+01  1.459986956521739194e+05  3.848566210649983645e+02
4.575000000000000000e+01  1.474030000000000000e+05  3.839309833811280441e+02
4.587500000000000000e+01  1.480155072463768010e+05  3.875056896683063883e+02
4.600000000000000000e+01  1.483939130434782710e+05  3.880007080720320687e+02
4.612500000000000000e+01  1.482867647058823495e+05  3.907021117659953688e+02
4.625000000000000000e+01  1.525840000000000000e+05  3.906200199682550647e+02
4.637500000000000000e+01  1.499647058823529514e+05  3.929063915565023990e+02
4.650000000000000000e+01  1.537590000000000000e+05  3.921211547468460594e+02
4.662500000000000000e+01  1.505055263157894951e+05  3.723217843214823688e+02
4.675000000000000000e+01  1.517690000000000000e+05  3.895754099016004375e+02
4.687500000000000000e+01  1.512320833333333430e+05  3.834464657936354115e+02
4.700000000000000000e+01  1.479576811594202882e+05  3.874299877127763239e+02
4.712500000000000000e+01  1.483069999999999709e+05  3.851064787821674713e+02
4.725000000000000000e+01  1.435960000000000000e+05  3.789406285950346387e+02
4.737500000000000000e+01  1.458310000000000000e+05  3.818782528503030562e+02
4.750000000000000000e+01  1.405898529411764757e+05  3.804271922666898149e+02
4.762500000000000000e+01  1.448763235294117767e+05  3.861831066586316865e+02
4.775000000000000000e+01  1.388336764705882233e+05  3.780436745882594209e+02
4.787500000000000000e+01  1.457988405797101441e+05  3.845931190944247646e+02
4.800000000000000000e+01  1.408142105263157864e+05  3.601351123800275218e+02
4.812500000000000000e+01  1.427475000000000000e+05  3.725349536173306433e+02
4.825000000000000000e+01  1.431095774647887447e+05  3.756247457412410427e+02
4.837500000000000000e+01  1.417080000000000000e+05  3.764412304729650600e+02
4.850000000000000000e+01  1.426057746478873305e+05  3.749629883209716468e+02
4.862500000000000000e+01  1.426133333333333139e+05  3.803684966407115553e+02
4.875000000000000000e+01  1.426455882352941262e+05  3.831984429937089089e+02
4.887500000000000000e+01  1.407339705882353010e+05  3.806221289117345350e+02
4.900000000000000000e+01  1.422801470588235243e+05  3.827072736001185262e+02
4.912500000000000000e+01  1.403591304347826226e+05  3.773503951646783321e+02
4.925000000000000000e+01  1.440965671641790832e+05  3.880059951354909913e+02
4.937500000000000000e+01  1.419591025641025626e+05  3.569302377339442955e+02
4.950000000000000000e+01  1.477068055555555620e+05  3.789509714126194240e+02
4.962500000000000000e+01  1.491098591549295816e+05  3.834184662918474373e+02
4.975000000000000000e+01  1.534623611111110949e+05  3.862635340630973246e+02
4.987500000000000000e+01  1.564510294117647281e+05  4.013135062227741514e+02
5.000000000000000000e+01  1.583288405797101441e+05  4.007785691097728318e+02
5.012500000000000000e+01  1.597095652173913259e+05  4.025222932923759345e+02
5.025000000000000000e+01  1.591264705882352719e+05  4.047303557921669039e+02
5.037500000000000000e+01  1.590986764705882233e+05  4.046950077625847371e+02
5.050000000000000000e+01  1.566898529411764466e+05  4.016196932767138037e+02
5.062500000000000000e+01  1.531908823529411748e+05  3.971101818636640814e+02
5.075000000000000000e+01  1.471072727272727061e+05  3.656964373596229620e+02
5.087500000000000000e+01  1.453306944444444380e+05  3.758905834280456588e+02
5.100000000000000000e+01  1.441146575342465658e+05  3.717420306632091638e+02
5.112500000000000000e+01  1.404210144927536312e+05  3.774335725121908922e+02
5.125000000000000000e+01  1.397490000000000000e+05  3.738301753470418021e+02
5.137500000000000000e+01  1.365607352941176505e+05  3.749362979342631661e+02
5.150000000000000000e+01  1.409100000000000000e+05  3.780901663797188235e+02
5.162500000000000000e+01  1.386247058823529223e+05  3.777590543113253148e+02
5.175000000000000000e+01  1.404666666666666861e+05  3.774949211034992800e+02
5.187500000000000000e+01  1.362179710144927376e+05  3.717420402745113392e+02
5.200000000000000000e+01  1.409058823529411748e+05  3.808545299853745973e+02
5.212500000000000000e+01  1.369154545454545587e+05  3.528010700682784204e+02
5.225000000000000000e+01  1.389081944444444380e+05  3.674909978321296649e+02
5.237500000000000000e+01  1.377935211267605482e+05  3.685821038901289626e+02
5.250000000000000000e+01  1.392847826086956484e+05  3.759034485695799503e+02
5.262500000000000000e+01  1.391450000000000000e+05  3.730214471045867413e+02
5.275000000000000000e+01  1.381089705882353010e+05  3.770556976561262559e+02
5.287500000000000000e+01  1.392852112676056277e+05  3.705717848523080420e+02
5.300000000000000000e+01  1.359760294117646990e+05  3.741327630594033735e+02
5.312500000000000000e+01  1.400213043478260806e+05  3.768960050381757583e+02
5.325000000000000000e+01  1.344586764705882233e+05  3.720394379976476671e+02
5.337500000000000000e+01  1.418395588235293981e+05  3.821142637400928947e+02
5.350000000000000000e+01  1.374660000000000000e+05  3.581921272166656536e+02
5.362500000000000000e+01  1.408361643835616414e+05  3.674892880155216517e+02
5.375000000000000000e+01  1.375056338028169121e+05  3.681968695347254084e+02
5.387500000000000000e+01  1.387542028985507204e+05  3.751867979758101228e+02
5.400000000000000000e+01  1.395800000000000000e+05  3.709637239772135331e+02
5.412500000000000000e+01  1.366450724637681269e+05  3.723243691095282202e+02
5.425000000000000000e+01  1.393101449275362538e+05  3.759376710775094921e+02
5.437500000000000000e+01  1.360151470588235243e+05  3.741865745327504555e+02
5.450000000000000000e+01  1.410550724637681269e+05  3.782847457620865725e+02
5.462500000000000000e+01  1.340242647058823495e+05  3.714379555784393574e+02
5.475000000000000000e+01  1.422347761194029881e+05  3.854912417139749437e+02
5.487500000000000000e+01  1.342056578947368253e+05  3.515828129711850920e+02
5.500000000000000000e+01  1.356034246575342549e+05  3.605976721755944823e+02
5.512500000000000000e+01  1.368914084507042426e+05  3.673735979141073926e+02
5.525000000000000000e+01  1.378580000000000000e+05  3.712923376532297652e+02
5.537500000000000000e+01  1.391520000000000000e+05  3.730308298250963617e+02
5.550000000000000000e+01  1.351608695652173774e+05  3.702968035877733541e+02
5.562500000000000000e+01  1.360878873239436653e+05  3.662938117366497295e+02
5.575000000000000000e+01  1.349888235294117767e+05  3.727721596967546134e+02
5.587500000000000000e+01  1.391682352941176505e+05  3.784989018281573863e+02
5.600000000000000000e+01  1.360716417910447635e+05  3.770469491605002190e+02
5.612500000000000000e+01  1.403973529411764757e+05  3.801666566799501652e+02
5.625000000000000000e+01  1.363864864864864794e+05  3.591855286251151256e+02
5.637500000000000000e+01  1.414662162162162131e+05  3.658133317937474089e+02
5.650000000000000000e+01  1.418269014084507071e+05  3.739376143379833479e+02
5.662500000000000000e+01  1.425269014084507071e+05  3.748592806132093074e+02
5.675000000000000000e+01  1.461080000000000000e+05  3.822407618242722265e+02
5.687500000000000000e+01  1.466990000000000000e+05  3.830130546078031557e+02
5.700000000000000000e+01  1.537352173913043516e+05  3.949218454582676259e+02
5.712500000000000000e+01  1.467848529411764466e+05  3.887184771763106141e+02
5.725000000000000000e+01  1.527564705882352719e+05  3.965467285938411237e+02
5.737500000000000000e+01  1.491236764705882233e+05  3.918030971738447761e+02
5.750000000000000000e+01  1.543729850746268639e+05  4.016032971564397371e+02
5.762500000000000000e+01  1.427358333333333139e+05  3.725197297782683563e+02
5.775000000000000000e+01  1.437118421052631747e+05  3.638216188740174175e+02
5.787500000000000000e+01  1.414670422535211255e+05  3.734629147594907295e+02
5.800000000000000000e+01  1.375966666666666861e+05  3.657520157661978146e+02
5.812500000000000000e+01  1.343470000000000000e+05  3.665337637926415937e+02
5.825000000000000000e+01  1.329450000000000000e+05  3.646162366104943544e+02
5.837500000000000000e+01  1.340325000000000000e+05  3.714493671457001369e+02
5.850000000000000000e+01  1.450451470588235534e+05  3.864080496002221707e+02
5.862500000000000000e+01  8.566641791044775164e+04  2.991692291456993757e+02
5.875000000000000000e+01  1.442131884057971183e+05  3.824960582993983849e+02
5.887500000000000000e+01  1.556413432835820713e+05  4.032497472466520207e+02
5.900000000000000000e+01  1.414325352112675901e+05  3.734173639148033885e+02
5.912500000000000000e+01  1.363145454545454413e+05  3.520260133137703065e+02
5.925000000000000000e+01  1.359215277777777810e+05  3.635188162722125185e+02
5.937500000000000000e+01  1.343092957746478787e+05  3.638923131263832147e+02
5.950000000000000000e+01  1.372680000000000000e+05  3.704969635503103405e+02
5.962500000000000000e+01  1.342600000000000000e+05  3.690606956876460458e+02
5.975000000000000000e+01  1.384445588235293981e+05  3.775135197744006064e+02
5.987500000000000000e+01  1.337010144927536312e+05  3.682916104868090201e+02
6.000000000000000000e+01  1.423552941176470777e+05  3.828083261018129519e+02
6.012500000000000000e+01  1.378310447761194082e+05  3.794767240483308797e+02
6.025000000000000000e+01  1.433295652173912968e+05  3.813224426820504505e+02
6.037500000000000000e+01  1.413185074626865680e+05  3.842475788169490443e+02
6.050000000000000000e+01  1.479860493827160390e+05  3.576159650783091593e+02
6.062500000000000000e+01  1.446209722222222190e+05  3.749716295852622920e+02
6.075000000000000000e+01  1.446890000000000000e+05  3.803800730848029161e+02
6.087500000000000000e+01  1.476030000000000000e+05  3.841913585701792044e+02
6.100000000000000000e+01  1.440062318840579828e+05  3.822215047887250421e+02
6.112500000000000000e+01  1.463689855072463979e+05  3.853443591805632877e+02
6.125000000000000000e+01  1.385519402985074557e+05  3.804678153547665147e+02
6.137500000000000000e+01  1.425463768115942075e+05  3.802791952376606446e+02
6.150000000000000000e+01  1.378516176470588252e+05  3.767042301190940634e+02
6.162500000000000000e+01  1.428229850746268639e+05  3.862875148225983253e+02
6.175000000000000000e+01  1.330791304347826226e+05  3.674340940693474522e+02
6.187500000000000000e+01  1.359662500000000000e+05  3.449209601488433918e+02
6.200000000000000000e+01  1.348744444444444380e+05  3.621159097564830631e+02
6.212500000000000000e+01  1.339900000000000000e+05  3.660464451405039767e+02
6.225000000000000000e+01  1.357220000000000000e+05  3.684046688086349377e+02
6.237500000000000000e+01  1.326808823529411748e+05  3.695717267942378612e+02
6.250000000000000000e+01  1.372152173913043516e+05  3.731003132272991252e+02
6.262500000000000000e+01  1.333063768115942075e+05  3.677476761138328811e+02
6.275000000000000000e+01  1.382905797101449280e+05  3.745594625827679920e+02
6.287500000000000000e+01  1.341011940298507398e+05  3.743069931297226276e+02
6.300000000000000000e+01  1.391929411764706019e+05  3.785324969022774440e+02
6.312500000000000000e+01  1.357756521739130549e+05  3.711380002760392358e+02
6.325000000000000000e+01  1.428771794871794991e+05  3.580825460647121758e+02
6.337500000000000000e+01  1.426668055555555620e+05  3.724296426636418005e+02
6.350000000000000000e+01  1.437632394366197404e+05  3.764816132009071907e+02
6.362500000000000000e+01  1.458171014492753602e+05  3.846172029104096168e+02
6.375000000000000000e+01  1.442350000000000000e+05  3.797828326820473421e+02
6.387500000000000000e+01  1.479576811594202882e+05  3.874299877127763239e+02
6.400000000000000000e+01  1.438077941176470486e+05  3.847563321390659326e+02
6.412500000000000000e+01  1.456040579710144957e+05  3.843361311530895250e+02
6.425000000000000000e+01  1.417407352941176505e+05  3.819811257769512167e+02
6.437500000000000000e+01  1.485075362318840635e+05  3.881492230646346115e+02
6.450000000000000000e+01  1.373718181818181765e+05  3.817032655350359960e+02
6.462500000000000000e+01  1.395027272727272648e+05  3.561188862683707725e+02
6.475000000000000000e+01  1.377379452054794529e+05  3.634246575342465917e+02
6.487500000000000000e+01  1.367109859154929582e+05  3.671314193468229519e+02
6.500000000000000000e+01  1.359480000000000000e+05  3.687112691524359320e+02
6.512500000000000000e+01  1.343076811594202882e+05  3.691262240645677366e+02
6.525000000000000000e+01  1.348600000000000000e+05  3.672328961299627395e+02
6.537500000000000000e+01  1.325769565217391355e+05  3.667401828116477986e+02
6.550000000000000000e+01  1.338626470588235243e+05  3.712139325739595961e+02
6.562500000000000000e+01  1.319297101449275506e+05  3.658438668744313418e+02
6.575000000000000000e+01  1.378331343283581955e+05  3.794796005172510718e+02
6.587500000000000000e+01  1.267084848484848335e+05  3.665893983198562296e+02
6.600000000000000000e+01  1.346302631578947476e+05  3.521385496814359612e+02
6.612500000000000000e+01  1.324017333333333372e+05  3.515322902822884430e+02
6.625000000000000000e+01  1.357477464788732468e+05  3.658357642270934207e+02
6.637500000000000000e+01  1.348480000000000000e+05  3.672165573609120202e+02
6.650000000000000000e+01  1.369400000000000000e+05  3.700540501061973373e+02
6.662500000000000000e+01  1.393426086956521904e+05  3.759814713422599084e+02
6.675000000000000000e+01  1.351340000000000000e+05  3.676057670929551477e+02
6.687500000000000000e+01  1.425951470588235243e+05  3.831306852397995044e+02
6.700000000000000000e+01  1.395789552238805918e+05  3.818753189054366430e+02
6.712500000000000000e+01  1.451120895522387873e+05  3.893708332693225316e+02
6.725000000000000000e+01  1.367322727272727352e+05  3.808137039747732615e+02
6.737500000000000000e+01  1.471142105263157864e+05  3.681031523200017546e+02
6.750000000000000000e+01  1.420122666666666628e+05  3.640670023803616004e+02
6.762500000000000000e+01  1.420645070422535064e+05  3.742507160879757180e+02
6.775000000000000000e+01  1.375091666666666861e+05  3.656357033887589978e+02
6.787500000000000000e+01  1.365800000000000000e+05  3.695673145720546700e+02
6.800000000000000000e+01  1.382378260869565129e+05  3.744880142832877823e+02
6.812500000000000000e+01  1.341590000000000000e+05  3.662772174187196015e+02
6.825000000000000000e+01  1.355795522388059762e+05  3.763645552631836040e+02
6.837500000000000000e+01  1.287183333333333285e+05  3.694853778493060759e+02
6.850000000000000000e+01  1.397952238805970119e+05  3.821710500771109196e+02
6.862500000000000000e+01  1.328067164179104439e+05  3.724960211999011221e+02
6.875000000000000000e+01  1.326500000000000000e+05  3.542311811934823140e+02
6.887500000000000000e+01  1.316571052631578932e+05  3.482285503354055436e+02
6.900000000000000000e+01  1.333461111111110949e+05  3.600584014700056628e+02
6.912500000000000000e+01  1.335974647887324099e+05  3.629267286313978502e+02
6.925000000000000000e+01  1.320761971830985858e+05  3.608544984529902990e+02
6.937500000000000000e+01  1.338680000000000000e+05  3.658797616704154620e+02
6.950000000000000000e+01  1.325697058823529223e+05  3.694168578704723132e+02
6.962500000000000000e+01  1.326301492537313316e+05  3.722483212227452327e+02
6.975000000000000000e+01  1.283873134328358283e+05  3.662458178722768025e+02
6.987500000000000000e+01  1.394055223880597041e+05  3.816379969341928700e+02
7.000000000000000000e+01  1.287915151515151665e+05  3.695903969590311817e+02
7.012500000000000000e+01  1.375308219178082072e+05  3.631513050123114681e+02
7.025000000000000000e+01  1.313828205128205009e+05  3.433768475517569527e+02
7.037500000000000000e+01  1.336204109589041036e+05  3.579513391418863080e+02
7.050000000000000000e+01  1.318030985915492929e+05  3.604812296378908059e+02
7.062500000000000000e+01  1.341830985915492929e+05  3.637213161123295890e+02
7.075000000000000000e+01  1.347067647058823495e+05  3.723825027759795603e+02
7.087500000000000000e+01  1.296225000000000000e+05  3.652874573135358105e+02
7.100000000000000000e+01  1.346601492537313316e+05  3.750862676445782427e+02
7.112500000000000000e+01  1.319374626865671598e+05  3.712749793206481854e+02
7.125000000000000000e+01  1.363286567164178996e+05  3.774028682026685146e+02
7.137500000000000000e+01  1.262110447761193936e+05  3.631284698106035762e+02
7.150000000000000000e+01  1.365330000000000000e+05  3.695037212261873947e+02
7.162500000000000000e+01  1.315749382716049440e+05  3.372042953135831453e+02
7.175000000000000000e+01  1.326145205479452270e+05  3.566014704745410313e+02
7.187500000000000000e+01  1.297187500000000000e+05  3.551273734716726835e+02
7.200000000000000000e+01  1.317501449275362538e+05  3.655948130345811933e+02
7.212500000000000000e+01  1.338204411764706019e+05  3.711554074847762763e+02
7.225000000000000000e+01  1.303647058823529369e+05  3.663317648494548280e+02
7.237500000000000000e+01  1.344000000000000000e+05  3.747237788661952891e+02
7.250000000000000000e+01  1.291294117647058883e+05  3.645920125841190611e+02
7.262500000000000000e+01  1.341262686567164201e+05  3.743419859929773565e+02
7.275000000000000000e+01  1.260198507462686539e+05  3.628533183401110023e+02
7.287500000000000000e+01  1.369482089552238758e+05  3.782594589847396378e+02
7.300000000000000000e+01  1.309141666666666715e+05  3.302955326505172025e+02
7.312500000000000000e+01  1.727849315068493015e+05  4.070432174806242642e+02
7.325000000000000000e+01  1.470276056338027993e+05  3.807319191857281453e+02
7.337500000000000000e+01  7.740173913043476932e+04  2.802204551164287523e+02
7.350000000000000000e+01  1.353182352941176505e+05  3.732267184848955708e+02
7.362500000000000000e+01  1.301320588235294126e+05  3.660047435735486374e+02
7.375000000000000000e+01  1.337607352941176505e+05  3.710726001303168573e+02
7.387500000000000000e+01  1.328332352941176505e+05  3.697838492358872031e+02
7.400000000000000000e+01  1.365762686567164201e+05  3.777454486419442219e+02
7.412500000000000000e+01  1.281041791044776037e+05  3.658417514774401411e+02
7.425000000000000000e+01  1.393794029850746156e+05  3.816022428857712043e+02
7.437500000000000000e+01  1.324830120481927879e+05  3.342643576026855499e+02
7.450000000000000000e+01  1.339875675675675739e+05  3.560126350955806060e+02
7.462500000000000000e+01  1.320620000000000000e+05  3.634033571666612943e+02
7.475000000000000000e+01  1.308715942028985592e+05  3.643738244906665500e+02
7.487500000000000000e+01  1.344994202898550720e+05  3.693896144324818351e+02
7.500000000000000000e+01  1.280042647058823641e+05  3.630001322599776472e+02
7.512500000000000000e+01  1.388686764705882233e+05  3.780913240315869075e+02
7.525000000000000000e+01  1.286455882352941117e+05  3.639083428652335783e+02
7.537500000000000000e+01  1.379595522388059762e+05  3.796535863423828232e+02
7.550000000000000000e+01  1.255089705882353010e+05  3.594445866884823886e+02
7.562500000000000000e+01  1.395120895522388164e+05  3.817838387519694265e+02
7.575000000000000000e+01  1.295587654320987640e+05  3.346107666950265411e+02
7.587500000000000000e+01  1.350856164383561700e+05  3.599085338653540020e+02
7.600000000000000000e+01  1.322073239436619915e+05  3.610335842529611341e+02
7.612500000000000000e+01  1.346201449275362538e+05  3.695553565038516695e+02
7.625000000000000000e+01  1.397666666666666861e+05  3.765531443653086967e+02
7.637500000000000000e+01  1.331957971014492796e+05  3.675951182653066667e+02
7.650000000000000000e+01  1.440044117647058738e+05  3.850192665830352894e+02
7.662500000000000000e+01  1.332233823529411748e+05  3.703265007098839305e+02
7.675000000000000000e+01  1.451069117647058738e+05  3.864903130878271327e+02
7.687500000000000000e+01  1.295961194029850740e+05  3.679659369011439480e+02
7.700000000000000000e+01  1.496356060606060491e+05  3.983772466774925647e+02
7.712500000000000000e+01  1.345825316455696302e+05  3.453264317947213158e+02
7.725000000000000000e+01  1.475628378378378402e+05  3.736127249237928822e+02
7.737500000000000000e+01  1.401759722222222190e+05  3.691641846334085812e+02
7.750000000000000000e+01  1.397100000000000000e+05  3.737780089839422430e+02
7.762500000000000000e+01  1.449953623188405763e+05  3.835319339786877322e+02
7.775000000000000000e+01  1.388657971014492796e+05  3.753376411786169911e+02
7.787500000000000000e+01  1.389885507246376947e+05  3.755034987143713465e+02
7.800000000000000000e+01  1.352039705882353010e+05  3.730691061431882645e+02
7.812500000000000000e+01  1.421257352941176505e+05  3.824995476850119758e+02
7.825000000000000000e+01  1.272154545454545441e+05  3.673220413937392550e+02
7.837500000000000000e+01  1.424598437500000000e+05  3.947346629085954532e+02
7.850000000000000000e+01  1.309584810126582306e+05  3.406452119008323507e+02
7.862500000000000000e+01  1.369601333333333314e+05  3.575324569570960875e+02
7.875000000000000000e+01  1.325800000000000000e+05  3.590225929133461023e+02
7.887500000000000000e+01  1.321245070422535064e+05  3.609204877703157877e+02
7.900000000000000000e+01  1.363082608695652161e+05  3.718652214326490935e+02
7.912500000000000000e+01  1.321160000000000000e+05  3.634776471806760014e+02
7.925000000000000000e+01  1.363589705882353010e+05  3.746592165511383996e+02
7.937500000000000000e+01  1.302689855072463688e+05  3.635339624009641284e+02
7.950000000000000000e+01  1.350644776119402959e+05  3.756489595201806537e+02
7.962500000000000000e+01  1.299243750000000000e+05  3.769678834546120925e+02
7.975000000000000000e+01  1.366979687500000000e+05  3.866696307189284312e+02
7.987500000000000000e+01  1.310772727272727352e+05  3.451972726207340543e+02
8.000000000000000000e+01  1.345884615384615317e+05  3.475406692248923264e+02
8.012500000000000000e+01  1.330865277777777810e+05  3.597077699799527863e+02
8.025000000000000000e+01  1.337602777777777810e+05  3.606171300786650704e+02
8.037500000000000000e+01  1.381040000000000000e+05  3.716234653516917774e+02
8.050000000000000000e+01  1.237900000000000000e+05  3.518380309176368996e+02
8.062500000000000000e+01  1.379466666666666861e+05  3.740934291320909892e+02
8.075000000000000000e+01  1.250138235294117767e+05  3.587348612722793177e+02
8.087500000000000000e+01  1.464618750000000000e+05  4.002407722624595863e+02
8.100000000000000000e+01  1.268564062500000000e+05  3.724905291895855726e+02
8.112500000000000000e+01  1.394028125000000000e+05  3.904764092386055836e+02
8.125000000000000000e+01  1.291509210526315874e+05  3.448982396394206376e+02
8.137500000000000000e+01  1.331102500000000000e+05  3.412791654203344365e+02
8.150000000000000000e+01  1.346924657534246508e+05  3.593844166649968201e+02
8.162500000000000000e+01  1.340325000000000000e+05  3.609838985328846661e+02
8.175000000000000000e+01  1.385783098591549206e+05  3.696302242485590455e+02
8.187500000000000000e+01  1.278436619718309812e+05  3.550254174203323601e+02
8.200000000000000000e+01  1.387947826086956484e+05  3.752416570654535803e+02
8.212500000000000000e+01  1.259365625000000000e+05  3.711375960939217862e+02
8.225000000000000000e+01  1.419534375000000000e+05  3.940324507773756864e+02
8.237500000000000000e+01  1.277565625000000000e+05  3.738097647659502059e+02
8.250000000000000000e+01  1.407470312500000000e+05  3.923545149857301340e+02
8.262500000000000000e+01  1.304109589041095896e+05  3.536263627454806056e+02
8.275000000000000000e+01  1.364241666666666861e+05  3.371747403877632792e+02
8.287500000000000000e+01  1.362340000000000000e+05  3.565834170756308481e+02
8.300000000000000000e+01  1.310802739726027357e+05  3.545326690142759958e+02
8.312500000000000000e+01  1.397394444444444380e+05  3.685889217134401861e+02
8.325000000000000000e+01  1.317173239436619915e+05  3.603639137968598902e+02
8.337500000000000000e+01  1.407021875000000000e+05  3.922920054986145146e+02
8.350000000000000000e+01  1.290975000000000000e+05  3.757664043325320904e+02
8.362500000000000000e+01  1.465646875000000000e+05  4.003812270238515794e+02
8.375000000000000000e+01  1.278473437500000000e+05  3.739425520405005727e+02
8.387500000000000000e+01  1.486723437500000000e+05  4.032497687247476961e+02
8.400000000000000000e+01  1.271025000000000000e+05  3.728516586727220101e+02
8.412500000000000000e+01  1.424410638297872501e+05  3.256887051145668011e+02
8.425000000000000000e+01  1.371118181818181765e+05  3.530539724150069674e+02
8.437500000000000000e+01  1.305929333333333198e+05  3.491228118839812851e+02
8.450000000000000000e+01  1.464610958904109721e+05  3.747561163533287072e+02
8.462500000000000000e+01  1.250210769230769220e+05  3.669306240152716896e+02
8.475000000000000000e+01  1.484426562500000000e+05  4.029381531617941619e+02
8.487500000000000000e+01  1.297843750000000000e+05  3.767647278557932964e+02
8.500000000000000000e+01  1.424062500000000000e+05  3.946604058396281403e+02
8.512500000000000000e+01  1.284423437500000000e+05  3.748117040282527341e+02
8.525000000000000000e+01  1.433315625000000000e+05  3.959405213973116702e+02
8.537500000000000000e+01  1.395132812500000000e+05  3.906310937024694567e+02
8.550000000000000000e+01  1.340368750000000000e+05  3.126263286323893453e+02
8.562500000000000000e+01  1.376628750000000000e+05  3.470662986015784099e+02
8.575000000000000000e+01  1.338090909090909117e+05  3.487758995389067422e+02
8.587500000000000000e+01  1.431938805970149115e+05  3.867887626242567762e+02
8.600000000000000000e+01  1.245518750000000000e+05  3.690916055415647179e+02
8.612500000000000000e+01  1.475917187500000000e+05  4.017815854202535775e+02
8.625000000000000000e+01  1.292954687500000000e+05  3.760544095544054244e+02
8.637500000000000000e+01  1.420825000000000000e+05  3.942115350608097515e+02
8.650000000000000000e+01  1.304745312500000000e+05  3.777651632359546738e+02
8.662500000000000000e+01  1.443771875000000000e+05  3.973821194116879383e+02
8.675000000000000000e+01  1.319740625000000000e+05  3.799297709569164567e+02
8.687500000000000000e+01  1.413195000000000000e+05  3.145213029351111800e+02
8.700000000000000000e+01  1.387490588235294272e+05  3.380294821400165119e+02
8.712500000000000000e+01  1.321984507042253390e+05  3.610214684673290435e+02
8.725000000000000000e+01  1.444406250000000000e+05  3.974694121485953815e+02
8.737500000000000000e+01  1.284160937500000000e+05  3.747734015896305664e+02
8.750000000000000000e+01  1.448201562500000000e+05  3.979912635956189888e+02
8.762500000000000000e+01  1.327550000000000000e+05  3.810522027885418197e+02
8.775000000000000000e+01  1.452478125000000000e+05  3.985784677097785789e+02
8.787500000000000000e+01  1.947990625000000000e+05  4.615858258323959831e+02
8.800000000000000000e+01  2.053078125000000000e+04  1.498517333639738069e+02
8.812500000000000000e+01  1.752450000000000000e+05  4.378061428874656258e+02
8.825000000000000000e+01  1.419863302752293530e+05  3.019666899314044031e+02
8.837500000000000000e+01  1.391608433734939899e+05  3.425851232913319109e+02
8.850000000000000000e+01  1.294300000000000000e+05  3.762500000000000000e+02
8.862500000000000000e+01  1.463710937500000000e+05  4.001167127090075724e+02
8.875000000000000000e+01  1.310235937500000000e+05  3.785591838326769221e+02
8.887500000000000000e+01  1.435404687500000000e+05  3.962289586783284676e+02
8.900000000000000000e+01  1.295503125000000000e+05  3.764248322001020597e+02
8.912500000000000000e+01  1.450531250000000000e+05  3.983112545092719756e+02
8.925000000000000000e+01  1.288065625000000000e+05  3.753427470118144811e+02
8.937500000000000000e+01  1.449765625000000000e+05  3.982061215430709922e+02
8.950000000000000000e+01  1.276012500000000000e+05  3.735824770883933752e+02
8.962500000000000000e+01  1.386246093750000000e+05  2.753367633498169766e+02
8.975000000000000000e+01  1.481331250000000000e+05  4.025178324854068137e+02
8.987500000000000000e+01  1.304832812500000000e+05  3.777778300366334747e+02
9.000000000000000000e+01  1.494150000000000000e+05  4.042556817782528356e+02
9.012500000000000000e+01  1.314600000000000000e+05  3.791891019003579117e+02
9.025000000000000000e+01  1.494040625000000000e+05  4.042408853139115763e+02
9.037500000000000000e+01  1.282750000000000000e+05  3.745674588775698908e+02
9.050000000000000000e+01  1.493898437500000000e+05  4.042216491005430044e+02
9.062500000000000000e+01  1.337951562500000000e+05  3.825420919956881107e+02
9.075000000000000000e+01  1.453287500000000000e+05  3.986895036397371541e+02
9.087500000000000000e+01  1.385700000000000000e+05  3.722499160510315050e+02
9.100000000000000000e+01  1.392931147540983511e+05  2.827052863978131541e+02
9.112500000000000000e+01  1.495200000000000000e+05  4.043977002901970081e+02
9.125000000000000000e+01  1.339887500000000000e+05  3.828187499489803827e+02
9.137500000000000000e+01  1.502998437500000000e+05  4.054509268722449065e+02
9.150000000000000000e+01  1.291576562500000000e+05  3.758539430728877164e+02
9.162500000000000000e+01  1.521340625000000000e+05  4.079174314237809540e+02
9.175000000000000000e+01  1.293053125000000000e+05  3.760687244997581615e+02
9.187500000000000000e+01  1.522532812500000000e+05  4.080772308855120514e+02
9.200000000000000000e+01  1.306090625000000000e+05  3.779598683846937774e+02
9.212500000000000000e+01  1.462453125000000000e+05  3.999447593691846237e+02
9.225000000000000000e+01  1.352877272727272648e+05  3.280476148416656201e+02
9.237500000000000000e+01  1.422709615384615317e+05  3.094499976337097564e+02
9.250000000000000000e+01  1.480948437500000000e+05  4.024658188611332434e+02
9.262500000000000000e+01  1.300720312500000000e+05  3.771820305630790244e+02
9.275000000000000000e+01  1.448792187500000000e+05  3.980724123922838089e+02
9.287500000000000000e+01  1.358907812500000000e+05  3.855263181576421516e+02
9.300000000000000000e+01  1.439615625000000000e+05  3.968097264236034221e+02
9.312500000000000000e+01  1.312478125000000000e+05  3.788829567582513960e+02
9.325000000000000000e+01  1.520443750000000000e+05  4.077971740415202930e+02
9.337500000000000000e+01  1.336442187500000000e+05  3.823262536863150558e+02
9.350000000000000000e+01  1.422372368421052524e+05  3.619502469980357091e+02
9.362500000000000000e+01  1.373801219512195094e+05  3.424554187931578895e+02
9.375000000000000000e+01  1.413185714285714203e+05  3.177134506669395932e+02
9.387500000000000000e+01  1.499629687500000000e+05  4.049962926624298234e+02
9.400000000000000000e+01  1.339307812500000000e+05  3.827359298422183542e+02
9.412500000000000000e+01  1.455923437500000000e+05  3.990509064976077411e+02
9.425000000000000000e+01  1.380323437500000000e+05  3.885522821662002571e+02
9.437500000000000000e+01  1.471870312500000000e+05  4.012303770026485950e+02
9.450000000000000000e+01  1.380946875000000000e+05  3.886400191091043439e+02
9.462500000000000000e+01  1.447490625000000000e+05  3.978935625382433727e+02
9.475000000000000000e+01  1.363767605633802887e+05  3.666823708863375373e+02
9.487500000000000000e+01  1.451380000000000000e+05  3.680518079473775970e+02
9.500000000000000000e+01  1.422816455696202465e+05  3.550666756760099929e+02
9.512500000000000000e+01  1.378992631578947185e+05  3.187632089490589351e+02
9.525000000000000000e+01  1.494292187500000000e+05  4.042749163722781987e+02
9.537500000000000000e+01  1.338782812500000000e+05  3.826609074849264971e+02
9.550000000000000000e+01  1.503414062500000000e+05  4.055069827832037390e+02
9.562500000000000000e+01  1.376189062500000000e+05  3.879699456284436110e+02
9.575000000000000000e+01  1.476529687500000000e+05  4.018649456848812065e+02
9.587500000000000000e+01  1.356939062500000000e+05  3.852469467250032835e+02
9.600000000000000000e+01  1.476763235294117767e+05  3.898970951542067951e+02
9.612500000000000000e+01  1.364261643835616414e+05  3.616899358329829397e+02
9.625000000000000000e+01  1.450610958904109721e+05  3.729606963083443247e+02
9.637500000000000000e+01  1.411209090909090883e+05  3.581783571590975725e+02
9.650000000000000000e+01  1.445234482758620870e+05  3.410032760032468104e+02
9.662500000000000000e+01  1.505050000000000000e+05  3.879497390126716141e+02
9.675000000000000000e+01  1.376451562500000000e+05  3.880069453610817618e+02
9.687500000000000000e+01  1.523571875000000000e+05  4.082164546268621166e+02
9.700000000000000000e+01  1.353614062500000000e+05  3.847746588406486126e+02
9.712500000000000000e+01  1.513728125000000000e+05  4.068955807966891598e+02
9.725000000000000000e+01  1.391631343283581955e+05  3.813060705621384159e+02
9.737500000000000000e+01  1.500380000000000000e+05  3.873473893031938360e+02
9.750000000000000000e+01  1.397122222222222190e+05  3.685530181133968881e+02
9.762500000000000000e+01  1.486994444444444380e+05  3.802221775764633662e+02
9.775000000000000000e+01  1.470550666666666802e+05  3.704745545318268682e+02
9.787500000000000000e+01  1.481106097560975759e+05  3.555782422718752969e+02
9.800000000000000000e+01  1.509370270270270412e+05  3.778601180454876953e+02
9.812500000000000000e+01  1.388854687500000000e+05  3.897511788889322588e+02
9.825000000000000000e+01  1.548235937500000000e+05  4.115073579707445219e+02
9.837500000000000000e+01  1.404134375000000000e+05  3.918892665863981506e+02
9.850000000000000000e+01  1.575837878787878726e+05  4.088206458552482445e+02
9.862500000000000000e+01  1.361530434782608645e+05  3.716534353297956272e+02
9.875000000000000000e+01  1.580060000000000000e+05  3.974996855344667779e+02
9.887500000000000000e+01  1.398373239436619915e+05  3.713055132499483761e+02
9.900000000000000000e+01  1.467695833333333430e+05  3.777468073497947785e+02
9.912500000000000000e+01  1.492630136986301513e+05  3.783238259021783847e+02
9.925000000000000000e+01  1.459302564102564065e+05  3.618881741983137772e+02
9.937500000000000000e+01  1.573963636363636469e+05  3.782692206693337766e+02
9.950000000000000000e+01  1.364332812500000000e+05  3.862950962246188169e+02
9.962500000000000000e+01  1.552053125000000000e+05  4.120143329386430651e+02
9.975000000000000000e+01  1.414086153846153757e+05  3.902386464503893535e+02
9.987500000000000000e+01  1.554415942028985301e+05  3.971075055076103695e+02
1.000000000000000000e+02  1.436866666666666570e+05  3.817971740670743088e+02
1.001250000000000000e+02  1.493526086956521904e+05  3.892520253723270116e+02
1.002500000000000000e+02  1.435469999999999709e+05  3.788759691508554965e+02
1.003750000000000000e+02  1.538461971830985858e+05  3.894603308880755321e+02
1.005000000000000000e+02  1.490223287671232829e+05  3.780186813840338687e+02
1.006250000000000000e+02  1.477709210526315728e+05  3.689238345598874389e+02
1.007500000000000000e+02  1.545779487179487187e+05  3.724564405826437223e+02
1.008750000000000000e+02  1.428350000000000000e+05  3.952540717690331462e+02
1.010000000000000000e+02  1.588256250000000000e+05  4.167919473115453570e+02
1.011250000000000000e+02  1.401132352941176505e+05  3.797817963025191830e+02
1.012500000000000000e+02  1.561030434782608645e+05  3.979515126585413327e+02
1.013750000000000000e+02  1.435517391304347839e+05  3.816178705430765490e+02
1.015000000000000000e+02  1.539786956521739194e+05  3.952344506131528874e+02
1.016250000000000000e+02  1.479789855072463979e+05  3.874578796277245374e+02
1.017500000000000000e+02  1.515263380281690042e+05  3.865128254704161463e+02
1.018750000000000000e+02  1.493681690140845021e+05  3.837504292971111681e+02
1.020000000000000000e+02  1.473061333333333314e+05  3.707906746999503866e+02
1.021250000000000000e+02  1.573529113924050762e+05  3.733987551501754751e+02
1.022500000000000000e+02  1.465351562500000000e+05  4.003408886791823420e+02
1.023750000000000000e+02  1.549347058823529514e+05  3.993640056346338270e+02
1.025000000000000000e+02  1.963098529411764466e+05  4.495371754875548618e+02
1.026250000000000000e+02  4.624426470588234952e+04  2.181843031439436515e+02
1.027500000000000000e+02  1.855123529411764466e+05  4.369995407502357807e+02
1.028750000000000000e+02  1.554720289855072624e+05  3.971463795590883024e+02
1.030000000000000000e+02  1.486049275362318731e+05  3.882764764162338906e+02
1.031250000000000000e+02  1.499380000000000000e+05  3.872182846922391946e+02
1.032500000000000000e+02  1.519650704225352092e+05  3.870719795050947596e+02
1.033750000000000000e+02  1.522010958904109721e+05  3.820291302155777089e+02
1.035000000000000000e+02  1.534802500000000000e+05  3.664631205865059655e+02
1.036250000000000000e+02  1.456020895522387873e+05  3.900276735045270584e+02
1.037500000000000000e+02  1.531056716417910648e+05  3.999514338972896894e+02
1.038750000000000000e+02  1.465357352941176505e+05  3.883884780237329437e+02
1.040000000000000000e+02  1.542182352941176505e+05  3.984395383793438441e+02
1.041250000000000000e+02  1.466304411764706019e+05  3.885139652716137562e+02
1.042500000000000000e+02  1.561669117647058738e+05  4.009489446654944231e+02
1.043750000000000000e+02  1.496366666666666570e+05  3.896220142775069917e+02
1.045000000000000000e+02  1.556850000000000000e+05  3.945693855331404052e+02
1.046250000000000000e+02  1.539600000000000000e+05  3.923773693780006511e+02
1.047500000000000000e+02  1.513697260273972643e+05  3.809843203532639677e+02
1.048750000000000000e+02  1.575495121951219335e+05  3.667335354453230707e+02
1.050000000000000000e+02  1.489301470588235534e+05  3.915487779341547707e+02
1.051250000000000000e+02  1.605319402985074557e+05  4.095362470225392144e+02
1.052500000000000000e+02  1.471765671641790832e+05  3.921307979601243119e+02
1.053750000000000000e+02  1.563398529411764466e+05  4.011708911549224013e+02
1.055000000000000000e+02  1.534647058823529514e+05  3.974649339280412050e+02
1.056250000000000000e+02  1.583266176470588252e+05  4.037118810141365088e+02
1.057500000000000000e+02  1.531661764705882233e+05  3.970781585706280907e+02
1.058750000000000000e+02  1.550743478260869451e+05  3.966381249229668242e+02
1.060000000000000000e+02  1.573718309859154979e+05  3.938976089342788214e+02
1.061250000000000000e+02  1.527879452054794529e+05  3.827649259704962219e+02
1.062500000000000000e+02  1.594733333333333430e+05  3.645469029417812408e+02
1.063750000000000000e+02  1.490174626865671598e+05  3.945755775373721121e+02
1.065000000000000000e+02  1.645480597014925443e+05  4.146274029417448901e+02
1.066250000000000000e+02  1.500214925373134320e+05  3.959026051949875296e+02
1.067500000000000000e+02  1.586323529411764466e+05  4.041014852492166938e+02
1.068750000000000000e+02  1.518320895522387873e+05  3.982844979700246313e+02
1.070000000000000000e+02  1.613675000000000000e+05  4.075703656317231207e+02
1.071250000000000000e+02  1.544385294117647281e+05  3.987240136991325699e+02
1.072500000000000000e+02  1.543560869565217290e+05  3.957185005720885442e+02
1.073750000000000000e+02  1.534331944444444380e+05  3.862268261856394247e+02
1.075000000000000000e+02  1.551679452054794529e+05  3.857345983108351675e+02
1.076250000000000000e+02  1.596575000000000000e+05  3.647573394281006927e+02
1.077500000000000000e+02  1.474220895522387873e+05  3.924577412112894308e+02
1.078750000000000000e+02  1.580568656716417754e+05  4.063668770475970291e+02
1.080000000000000000e+02  1.514935820895522193e+05  3.978402654457941026e+02
1.081250000000000000e+02  1.593555223880597041e+05  4.080328960831865288e+02
1.082500000000000000e+02  1.528717647058823495e+05  3.966963487096708718e+02
1.083750000000000000e+02  1.578855223880597041e+05  4.061465540793250852e+02
1.085000000000000000e+02  1.525680882352941262e+05  3.963021384601613590e+02
1.086250000000000000e+02  1.559890000000000000e+05  3.949544277508482537e+02
1.087500000000000000e+02  1.556031944444444380e+05  3.889484329415075194e+02
1.088750000000000000e+02  1.571336986301369907e+05  3.881702582261606267e+02
1.090000000000000000e+02  1.575673417721519072e+05  3.736530903793089351e+02
1.091250000000000000e+02  1.568486111111110949e+05  3.905018633078638004e+02
1.092500000000000000e+02  1.584507462686567160e+05  4.068728988309177339e+02
1.093750000000000000e+02  1.536796969696969609e+05  4.037246809375956786e+02
1.095000000000000000e+02  1.609855882352941262e+05  4.070877773619697564e+02
1.096250000000000000e+02  1.593994029850746447e+05  4.080890707748724822e+02
1.097500000000000000e+02  1.572022388059701480e+05  4.052667578535930488e+02
1.098750000000000000e+02  1.529591304347825935e+05  3.939237609317202100e+02
1.100000000000000000e+02  1.584760563380281674e+05  3.952771169780849050e+02
1.101250000000000000e+02  1.593564788732394227e+05  3.963735882022421038e+02
1.102500000000000000e+02  1.582019178082191793e+05  3.894874441251849362e+02
1.103750000000000000e+02  1.620536363636363531e+05  3.838248136888830686e+02
1.105000000000000000e+02  1.563598630136986321e+05  3.872132683917419058e+02
1.106250000000000000e+02  1.623373134328357992e+05  4.118326703439933567e+02
1.107500000000000000e+02  1.546780597014925443e+05  4.019999290692830414e+02
1.108750000000000000e+02  1.624741791044776328e+05  4.120062406662812577e+02
1.110000000000000000e+02  1.564970149253731361e+05  4.043567038542607861e+02
1.111250000000000000e+02  1.607127941176470486e+05  4.067427208979408420e+02
1.112500000000000000e+02  1.570360000000000000e+05  3.962776804211915191e+02
1.113750000000000000e+02  1.587300000000000000e+05  3.984093372399797772e+02
1.115000000000000000e+02  1.608765277777777810e+05  3.954841783681189895e+02
1.116250000000000000e+02  1.590528169014084560e+05  3.959957529843853195e+02
1.117500000000000000e+02  1.596083999999999942e+05  3.859635215923908618e+02
1.118750000000000000e+02  1.576971052631578932e+05  3.811132821025971680e+02
1.120000000000000000e+02  1.642846969696969609e+05  4.174222625482386775e+02
1.121250000000000000e+02  1.646023880597015086e+05  4.146958454596322099e+02
1.122500000000000000e+02  1.465967164179104439e+05  3.913575711498684768e+02
1.123750000000000000e+02  1.552939705882352719e+05  3.998267628753966960e+02
1.125000000000000000e+02  1.643113043478260806e+05  4.082800847448278887e+02
1.126250000000000000e+02  1.575500000000000000e+05  3.969256857397867861e+02
1.127500000000000000e+02  1.571418840579710086e+05  3.992734685244022330e+02
1.128750000000000000e+02  1.591267605633802596e+05  3.960877915104356930e+02
1.130000000000000000e+02  1.594444444444444380e+05  3.937199919978225466e+02
1.131250000000000000e+02  1.625466216216216271e+05  3.921228350277277741e+02
1.132500000000000000e+02  1.554902631578947185e+05  3.784372022759945366e+02
1.133750000000000000e+02  1.650798507462686393e+05  4.152968647296900713e+02
1.135000000000000000e+02  1.521853030303030391e+05  4.017569597768148242e+02
1.136250000000000000e+02  1.615836764705882233e+05  4.078432757117034839e+02
1.137500000000000000e+02  1.594295652173913259e+05  4.021692910036009039e+02
1.138750000000000000e+02  1.642676811594202882e+05  4.082258837833733764e+02
1.140000000000000000e+02  1.558555072463768010e+05  3.976358669860097166e+02
1.141250000000000000e+02  1.617180000000000000e+05  4.021417660477458753e+02
1.142500000000000000e+02  1.579340000000000000e+05  3.974091091054658023e+02
1.143750000000000000e+02  1.613401408450704184e+05  3.988329781940553858e+02
1.145000000000000000e+02  1.607698630136986321e+05  3.926358138808822673e+02
1.146250000000000000e+02  1.588811538461538439e+05  3.776051520935247936e+02
1.147500000000000000e+02  1.650843939393939509e+05  4.184369829778429448e+02
1.148750000000000000e+02  1.565053731343283434e+05  4.043675016726736544e+02
1.150000000000000000e+02  1.618592753623188473e+05  4.052222377434051168e+02
1.151250000000000000e+02  1.610578260869565129e+05  4.042177599753889012e+02
1.152500000000000000e+02  1.618194117647058738e+05  4.081406696573789645e+02
1.153750000000000000e+02  1.601062318840579828e+05  4.030218505940970886e+02
1.155000000000000000e+02  1.634073913043478096e+05  4.071555161934192597e+02
1.156250000000000000e+02  1.592980000000000000e+05  3.991215353748780217e+02
1.157500000000000000e+02  1.609092957746478787e+05  3.983000974957774361e+02
1.158750000000000000e+02  1.637006756756756804e+05  3.935123765576090591e+02
1.160000000000000000e+02  1.598527272727272648e+05  3.812094714943803524e+02
1.161250000000000000e+02  1.660922388059701480e+05  4.165683674052260130e+02
1.162500000000000000e+02  1.568761764705882233e+05  4.018584099666195470e+02
1.163750000000000000e+02  1.655911764705882233e+05  4.128698404949329870e+02
1.165000000000000000e+02  1.601404411764706019e+05  4.060178002898999807e+02
1.166250000000000000e+02  1.623218840579710086e+05  4.058009057792687599e+02
1.167500000000000000e+02  1.605576811594202882e+05  4.035896481263786768e+02
1.168750000000000000e+02  1.634150000000000000e+05  4.042462121034654388e+02
1.170000000000000000e+02  1.792476811594202882e+05  4.264334340081598498e+02
1.171250000000000000e+02  1.845594366197182972e+05  4.265677061556975787e+02
1.172500000000000000e+02  1.387302777777777810e+05  3.672555771538633280e+02
1.173750000000000000e+02  1.801977215189873532e+05  3.995858695808986454e+02
1.175000000000000000e+02  1.017511764705882233e+05  3.236415581032322279e+02
1.176250000000000000e+02  1.376722388059701480e+05  3.792580485754027677e+02
1.177500000000000000e+02  1.850607246376811527e+05  4.332929310814841983e+02
1.178750000000000000e+02  1.616526470588235534e+05  4.079303086045467239e+02
1.180000000000000000e+02  1.661305882352941262e+05  4.135417536439584296e+02
1.181250000000000000e+02  1.634073913043478096e+05  4.071555161934192597e+02
1.182500000000000000e+02  1.660227536231884151e+05  4.104008777857237646e+02
1.183750000000000000e+02  1.653560000000000000e+05  4.066398898288263126e+02
1.185000000000000000e+02  1.646630000000000291e+05  4.057868898818688876e+02
1.186250000000000000e+02  1.643312328767123399e+05  3.969608224237162517e+02
1.187500000000000000e+02  1.635497500000000000e+05  3.782935781241865243e+02
1.188750000000000000e+02  1.714028358208955033e+05  4.231756014512441197e+02
1.190000000000000000e+02  1.627572058823529514e+05  4.093216125810504877e+02
1.191250000000000000e+02  1.685373529411764466e+05  4.165265104528577353e+02
1.192500000000000000e+02  1.613623529411764466e+05  4.075638655453522006e+02
1.193750000000000000e+02  1.701862318840579828e+05  4.155149804914528886e+02
1.195000000000000000e+02  1.664136764705882233e+05  4.138939433801634777e+02
1.196250000000000000e+02  1.700845588235293981e+05  4.184340400203488457e+02
1.197500000000000000e+02  1.643230000000000000e+05  4.053677342857963595e+02
1.198750000000000000e+02  1.686349295774647908e+05  4.077496655109125641e+02
1.200000000000000000e+02  1.669097260273972643e+05  4.000630228077223478e+02
1.201250000000000000e+02  1.687305128205128131e+05  3.891334208184849786e+02
1.202500000000000000e+02  1.731600000000000000e+05  4.161249812255928759e+02
1.203750000000000000e+02  1.641876119402984914e+05  4.141730267135080794e+02
1.205000000000000000e+02  1.731645588235293981e+05  4.222056774642484811e+02
1.206250000000000000e+02  1.641952941176470486e+05  4.111259751877135500e+02
1.207500000000000000e+02  1.707279411764706019e+05  4.192247025296489369e+02
1.208750000000000000e+02  1.665594202898550720e+05  4.110636507059910514e+02
1.210000000000000000e+02  1.745202941176470486e+05  4.238552157808567813e+02
1.211250000000000000e+02  1.692866197183098411e+05  4.085367806339203867e+02
1.212500000000000000e+02  1.743561971830985858e+05  4.146088229838008488e+02
1.213750000000000000e+02  1.704072222222222190e+05  4.070303284420031105e+02
1.215000000000000000e+02  1.704854545454545296e+05  3.936835999371882622e+02
1.216250000000000000e+02  1.785364788732394227e+05  4.195496163497830366e+02
1.217500000000000000e+02  1.703552941176470486e+05  4.187669327258739713e+02
1.218750000000000000e+02  1.759016417910447926e+05  4.286931708192489054e+02
1.220000000000000000e+02  1.711047058823529514e+05  4.196870229490469910e+02
1.221250000000000000e+02  1.769075000000000000e+05  4.267442580336680749e+02
1.222500000000000000e+02  1.735125000000000000e+05  4.226296355244499523e+02
1.223750000000000000e+02  1.772626760563380376e+05  4.180502585181521340e+02
1.225000000000000000e+02  1.743689855072463979e+05  4.205901475946960772e+02
1.226250000000000000e+02  1.771640845070422802e+05  4.179339848722145234e+02
1.227500000000000000e+02  1.762887671232876601e+05  4.111496361045525418e+02
1.228750000000000000e+02  1.764756756756756804e+05  4.085785725701691717e+02
1.230000000000000000e+02  1.812725675675675448e+05  4.140942530412044675e+02
1.231250000000000000e+02  1.739395522388059762e+05  4.262955434892000994e+02
1.232500000000000000e+02  1.811537313432835799e+05  4.350460808330615805e+02
1.233750000000000000e+02  1.753119117647058738e+05  4.248154239945483255e+02
1.235000000000000000e+02  1.810241176470588252e+05  4.316808501675561729e+02
1.236250000000000000e+02  1.769870000000000000e+05  4.206982291381792720e+02
1.237500000000000000e+02  1.811792753623188473e+05  4.287249257528336557e+02
1.238750000000000000e+02  1.768768115942028817e+05  4.236038758631615337e+02
1.240000000000000000e+02  1.817695833333333430e+05  4.203812891182727185e+02
1.241250000000000000e+02  1.836080281690140837e+05  4.254668019989965160e+02
1.242500000000000000e+02  1.803861643835616414e+05  4.159002697046511798e+02
1.243750000000000000e+02  1.822426666666666570e+05  4.124235147946289999e+02
1.245000000000000000e+02  1.711583582089552074e+05  4.228736989846239567e+02
1.246250000000000000e+02  1.869494117647058738e+05  4.386888691036422188e+02
1.247500000000000000e+02  1.765173529411764466e+05  4.262734331299424753e+02
1.248750000000000000e+02  1.844520000000000000e+05  4.294787538400473750e+02
1.250000000000000000e+02  1.787120588235293981e+05  4.289152548554910709e+02
1.251250000000000000e+02  1.803761971830985858e+05  4.217056880854445922e+02
1.252500000000000000e+02  1.779237681159420172e+05  4.248557089777136184e+02
1.253750000000000000e+02  1.827640000000000000e+05  4.275090642313914486e+02
1.255000000000000000e+02  1.822928169014084560e+05  4.239402227177887426e+02
1.256250000000000000e+02  1.814889041095890279e+05  4.171695770253343198e+02
1.257500000000000000e+02  1.879191999999999825e+05  4.187973893583069298e+02
1.258750000000000000e+02  1.789356716417910648e+05  4.323745097027312454e+02
1.260000000000000000e+02  1.836789855072463979e+05  4.316723291918999621e+02
1.261250000000000000e+02  1.779410294117647281e+05  4.279890058171425267e+02
1.262500000000000000e+02  1.832810000000000000e+05  4.281133027599119032e+02
1.263750000000000000e+02  1.786935294117647281e+05  4.288930186576685060e+02
1.265000000000000000e+02  1.843110000000000000e+05  4.293145699833631284e+02
1.266250000000000000e+02  1.826939130434782710e+05  4.305132412756587996e+02
1.267500000000000000e+02  1.814380000000000000e+05  4.259553967259952287e+02
1.268750000000000000e+02  1.828478873239436653e+05  4.245851680961882266e+02
1.270000000000000000e+02  1.814915277777777810e+05  4.200596343980427037e+02
1.271250000000000000e+02  1.836136842105263204e+05  4.112394278714178313e+02
1.272500000000000000e+02  1.799950000000000000e+05  4.242581761144975303e+02
1.273750000000000000e+02  1.859952238805970119e+05  4.408212429471379323e+02
1.275000000000000000e+02  1.798866176470588252e+05  4.303224378521658195e+02
1.276250000000000000e+02  1.860010000000000000e+05  4.312783324026376590e+02
1.277500000000000000e+02  1.808264705882352719e+05  4.314451253563674413e+02
1.278750000000000000e+02  1.856521739130434871e+05  4.339847752273972787e+02
1.280000000000000000e+02  1.805218840579710086e+05  4.279464256740754990e+02
1.281250000000000000e+02  1.828409859154929582e+05  4.245771552518500584e+02
1.282500000000000000e+02  1.836980000000000000e+05  4.286000466635532007e+02
1.283750000000000000e+02  1.827939726027397264e+05  4.186668025254375607e+02
1.285000000000000000e+02  1.898528947368421068e+05  4.181680383652597470e+02
1.286250000000000000e+02  1.796037681159420172e+05  4.268567924691402027e+02
1.287500000000000000e+02  1.908663235294117767e+05  4.432606895804495366e+02
1.288750000000000000e+02  1.804538235294117767e+05  4.310003351823935418e+02
1.290000000000000000e+02  1.876385507246376656e+05  4.363002979720527037e+02
1.291250000000000000e+02  1.844211764705882233e+05  4.357124381053668571e+02
1.292500000000000000e+02  1.882640000000000000e+05  4.338939962709786187e+02
1.293750000000000000e+02  1.862010144927536021e+05  4.346257929761933383e+02
1.295000000000000000e+02  1.881721739130434871e+05  4.369202522981796619e+02
1.296250000000000000e+02  1.890233333333333430e+05  4.286871647077682042e+02
1.297500000000000000e+02  1.884681944444444380e+05  4.280572004078283044e+02
1.298750000000000000e+02  1.927270512820512813e+05  4.158848088443264146e+02
1.300000000000000000e+02  1.863214705882352719e+05  4.379514971327652120e+02
1.301250000000000000e+02  1.953802941176470486e+05  4.484715970453439695e+02
1.302500000000000000e+02  1.884595588235293981e+05  4.404571341506701287e+02
1.303750000000000000e+02  1.934871014492753602e+05  4.430476975900502339e+02
1.305000000000000000e+02  1.887047826086956484e+05  4.375381520856904558e+02
1.306250000000000000e+02  1.942644117647058738e+05  4.471890773870221096e+02
1.307500000000000000e+02  1.916520000000000000e+05  4.377807670512719369e+02
1.308750000000000000e+02  1.926330000000000000e+05  4.388997607654850981e+02
1.310000000000000000e+02  1.910251388888889051e+05  4.309511399577268094e+02
1.311250000000000000e+02  1.889240845070422802e+05  4.315821844195512540e+02
1.312500000000000000e+02  1.899932911392405222e+05  4.103029195845189179e+02
1.313750000000000000e+02  1.809061194029850594e+05  4.347486554390983429e+02
1.315000000000000000e+02  1.933904411764706019e+05  4.461820204005533128e+02
1.316250000000000000e+02  1.824529411764706019e+05  4.333811303601589771e+02
1.317500000000000000e+02  1.886896666666666570e+05  4.691886022107148619e+02
1.318750000000000000e+02  1.969955555555555620e+05  5.535680002169539193e+02
1.320000000000000000e+02  5.275479999999999563e+04  3.843350621528043689e+02
